"#""Step""",Potential Energy (kJ/mole),Kinetic Energy (kJ/mole),Total Energy (kJ/mole),Temperature (K),Density (g/mL)
100,-391431.3587,6398.832843,-385032.5258,29.64339356,0.95800248
200,-385611.0858,11856.0699,-373755.0158,54.92472687,0.95800248
300,-380473.0025,16725.28278,-363747.7197,77.4819646,0.95800248
400,-375930.3485,21280.3189,-354650.0296,98.58373921,0.95800248
500,-371433.31,24999.06896,-346434.241,115.811314,0.95800248
600,-367550.6501,29145.28505,-338405.365,135.0191787,0.95800248
700,-363894.4427,32185.57654,-331708.8661,149.1037093,0.95800248
800,-360466.2076,34951.77191,-325514.4357,161.9184554,0.95800248
900,-357775.9177,38023.15641,-319752.7613,176.1470283,0.95800248
1000,-354877.7402,40266.13661,-314611.6036,186.5379146,0.95800248
1100,-352393.9866,42545.7076,-309848.279,197.0983124,0.95800248
1200,-349967.6132,44145.97883,-305821.6344,204.511769,0.95800248
1300,-348230.6528,45903.16649,-302327.4863,212.6521607,0.95800248
1400,-346036.8807,47275.35103,-298761.5297,219.0089772,0.95800248
1500,-344333.8121,48721.97328,-295611.8388,225.7106357,0.95800248
1600,-342540.0928,50312.18849,-292227.9043,233.0775066,0.95800248
1700,-340651.1033,50931.92127,-289719.1821,235.9484962,0.95800248
1800,-339279.1806,51846.85703,-287432.3236,240.1870506,0.95800248
1900,-338140.8869,53000.04286,-285140.844,245.5293282,0.95800248
2000,-337105.6769,54018.56605,-283087.1108,250.2477642,0.95800248
2100,-336126.4,55310.11787,-280816.2821,256.2310396,0.95800248
2200,-334346.9539,55397.63314,-278949.3208,256.636465,0.95800248
2300,-332629.3468,55519.65021,-277109.6965,257.2017244,0.95800248
2400,-332112.8608,56457.56505,-275655.2957,261.5467322,0.95800248
2500,-331489.7659,57626.6352,-273863.1307,266.9625959,0.95800248
2600,-330161.9843,58029.79826,-272132.186,268.8302992,0.95800248
2700,-328653.6779,57898.49402,-270755.1838,268.2220159,0.95800248
2800,-328002.4036,58548.09541,-269454.3082,271.2313756,0.95800248
2900,-327424.6525,58982.21596,-268442.4366,273.2424934,0.95800248
3000,-326449.429,59180.62999,-267268.799,274.1616712,0.95800248
3100,-326031.1252,59820.79968,-266210.3256,277.1273373,0.95800248
3200,-325114.3351,59826.82639,-265287.5087,277.1552568,0.95800248
3300,-324793.8463,60283.59024,-264510.2561,279.2712725,0.95800248
3400,-324195.4171,60269.05859,-263926.3585,279.2039528,0.95800248
3500,-324026.568,60873.66961,-263152.8984,282.004889,0.95800248
3600,-323231.9544,60675.62039,-262556.334,281.0874012,0.95800248
3700,-323127.0789,61167.68638,-261959.3925,283.3669585,0.95800248
3800,-322027.7843,61055.02808,-260972.7562,282.8450548,0.95800248
3900,-321986.5109,62148.06226,-259838.4487,287.9086723,0.95800248
4000,-321224.4351,61853.42976,-259371.0053,286.5437504,0.95800248
4100,-320504.1743,61483.16489,-259021.0094,284.8284521,0.95800248
4200,-320451.2252,62109.26626,-258341.9589,287.728945,0.95800248
4300,-319778.3789,61941.11401,-257837.2649,286.9499587,0.95800248
4400,-319604.528,62811.32081,-256793.2072,290.9813005,0.95800248
4500,-318979.848,62715.1774,-256264.6706,290.5359042,0.95800248
4600,-318698.7343,63186.74882,-255511.9854,292.7205178,0.95800248
4700,-317981.6792,63067.52978,-254914.1494,292.1682207,0.95800248
4800,-317384.8883,63119.43515,-254265.4531,292.4086788,0.95800248
4900,-317374.1837,63213.30921,-254160.8745,292.8435621,0.95800248
5000,-317806.4677,63348.23634,-254458.2314,293.4686289,0.95800248
5100,-317772.0835,63399.90652,-254372.1769,293.7079975,0.95800248
5200,-316903.3788,63292.04423,-253611.3346,293.2083119,0.95800248
5300,-316206.431,62989.94125,-253216.4897,291.8087821,0.95800248
5400,-316288.1898,63432.77438,-252855.4155,293.8602619,0.95800248
5500,-316305.7258,63862.03073,-252443.6951,295.8488457,0.95800248
5600,-316422.3578,64033.32244,-252389.0354,296.6423759,0.95800248
5700,-316524.1404,64200.4406,-252323.6998,297.4165717,0.95800248
5800,-315677.8223,63661.49127,-252016.3311,294.9198215,0.95800248
5900,-316355.7943,64281.71329,-252074.081,297.7930776,0.95800248
6000,-316289.1777,64427.12661,-251862.0511,298.466723,0.95800248
6100,-315603.1834,63820.9977,-251782.1857,295.6587551,0.95800248
6200,-315399.2139,63539.74113,-251859.4728,294.3557988,0.95800248
6300,-316310.6449,64859.42667,-251451.2183,300.4694071,0.95800248
6400,-315586.5828,64223.71822,-251362.8646,297.5244082,0.95800248
6500,-315471.634,64667.01911,-250804.6149,299.578055,0.95800248
6600,-315099.9147,64625.94247,-250473.9723,299.3877624,0.95800248
6700,-315298.8809,64409.91602,-250888.9648,298.3869928,0.95800248
6800,-315094.3851,64430.86126,-250663.5239,298.4840243,0.95800248
6900,-315359.853,64457.18392,-250902.6691,298.6059673,0.95800248
7000,-314767.9058,64106.95783,-250660.948,296.9835011,0.95800248
7100,-314967.8229,64093.3834,-250874.4395,296.9206159,0.95800248
7200,-315355.0751,64309.39363,-251045.6815,297.9213103,0.95800248
7300,-315577.5927,64104.90101,-251472.6917,296.9739726,0.95800248
7400,-315275.6124,64095.92605,-251179.6863,296.932395,0.95800248
7500,-315237.2529,64162.91109,-251074.3418,297.2427116,0.95800248
7600,-315144.4412,64048.1692,-251096.272,296.7111554,0.95800248
7700,-315086.7589,63992.51979,-251094.2391,296.4533526,0.95800248
7800,-314987.4558,63925.16836,-251062.2874,296.1413387,0.95800248
7900,-314911.755,63888.61654,-251023.1384,295.9720078,0.95800248
8000,-315311.9144,64600.97082,-250710.9436,299.2720781,0.95800248
8100,-315580.7121,64237.68397,-251343.0282,297.5891063,0.95800248
8200,-315600.8256,64129.99457,-251470.831,297.0902217,0.95800248
8300,-315581.3193,64404.97639,-251176.3429,298.3641094,0.95800248
8400,-315923.0933,64853.8273,-251069.266,300.4434674,0.95800248
8500,-315453.2397,64375.04315,-251078.1966,298.2254399,0.95800248
8600,-315467.6115,64252.02051,-251215.591,297.6555221,0.95800248
8700,-315560.9224,64350.34858,-251210.5739,298.1110392,0.95800248
8800,-315362.8104,64091.11436,-251271.6961,296.9101042,0.95800248
8900,-315793.5295,64331.47356,-251462.056,298.0235983,0.95800248
9000,-315954.9909,64497.53092,-251457.46,298.7928798,0.95800248
9100,-315889.7428,64308.64204,-251581.1008,297.9178284,0.95800248
9200,-315612.2203,64179.77169,-251432.4486,297.3208204,0.95800248
9300,-315227.1333,63992.10829,-251235.025,296.4514463,0.95800248
9400,-314950.4078,63942.32446,-251008.0834,296.2208164,0.95800248
9500,-314965.032,64132.06391,-250832.9681,297.0998082,0.95800248
9600,-315160.7014,64316.94576,-250843.7556,297.9562965,0.95800248
9700,-315149.055,64295.92522,-250853.1298,297.8589162,0.95800248
9800,-315010.0632,64006.92495,-251003.1382,296.5200863,0.95800248
9900,-314847.6707,63957.88693,-250889.7838,296.2929115,0.95800248
10000,-315173.0842,64472.93587,-250700.1483,298.6789402,0.95800248
10100,-314863.1252,64362.14535,-250500.9799,298.1656892,0.95800248
10200,-314920.0224,64818.84594,-250101.1765,300.2814118,0.95800248
10300,-314276.9769,64408.97386,-249868.0031,298.3826281,0.95800248
10400,-314643.2607,64907.97748,-249735.2833,300.6943248,0.95800248
10500,-314348.6509,64360.08323,-249988.5677,298.1561362,0.95800248
10600,-314393.6439,64981.39075,-249412.2532,301.034421,0.95800248
10700,-314097.9552,64799.37152,-249298.5836,300.1911941,0.95800248
10800,-314378.2455,65452.87095,-248925.3745,303.218612,0.95800248
10900,-313966.3243,64520.6406,-249445.6837,298.8999383,0.95800248
11000,-313914.1255,64506.7787,-249407.3468,298.8357213,0.95800248
11100,-314249.0418,64309.86038,-249939.1814,297.9234726,0.95800248
11200,-314643.5606,65252.31504,-249391.2456,302.2895117,0.95800248
11300,-314596.9897,64816.65124,-249780.3385,300.2712446,0.95800248
11400,-314159.9131,64375.73768,-249784.1754,298.2286574,0.95800248
11500,-314424.7496,64836.17125,-249588.5784,300.3616735,0.95800248
11600,-315006.4164,65162.19744,-249844.2189,301.8720306,0.95800248
11700,-314379.7725,64603.50696,-249776.2655,299.2838271,0.95800248
11800,-314551.9645,64434.02765,-250117.9368,298.498693,0.95800248
11900,-315089.9,64858.06386,-250231.8361,300.4630938,0.95800248
12000,-314577.3148,64568.89832,-250008.4165,299.1234982,0.95800248
12100,-314403.6738,64346.43042,-250057.2433,298.0928878,0.95800248
12200,-314591.0586,64829.84434,-249761.2143,300.3323633,0.95800248
12300,-314404.6343,64847.69409,-249556.9402,300.4150545,0.95800248
12400,-314925.6061,65155.39824,-249770.2078,301.8405324,0.95800248
12500,-315033.0497,64969.34794,-250063.7018,300.9786312,0.95800248
12600,-314608.7135,64460.56659,-250148.1469,298.6216379,0.95800248
12700,-314354.7109,63864.55655,-250490.1543,295.8605469,0.95800248
12800,-314903.7181,64223.89951,-250679.8186,297.5252481,0.95800248
12900,-315324.1379,64584.83622,-250739.3017,299.1973325,0.95800248
13000,-315513.4979,64813.75115,-250699.7467,300.2578096,0.95800248
13100,-314552.8008,64080.75123,-250472.0496,296.8620958,0.95800248
13200,-314833.4082,64285.89505,-250547.5132,297.8124502,0.95800248
13300,-314507.383,64468.00934,-250039.3736,298.6561174,0.95800248
13400,-313656.9651,64048.53561,-249608.4294,296.7128529,0.95800248
13500,-314080.2534,64791.53804,-249288.7153,300.1549045,0.95800248
13600,-314114.7191,64922.82873,-249191.8904,300.7631251,0.95800248
13700,-313980.2866,64794.49717,-249185.7894,300.1686131,0.95800248
13800,-313662.873,64401.32663,-249261.5463,298.3472014,0.95800248
13900,-314039.1408,64520.89638,-249518.2444,298.9011232,0.95800248
14000,-314275.6702,64692.27252,-249583.3977,299.6950446,0.95800248
14100,-314236.7932,65000.8964,-249235.8968,301.1247834,0.95800248
14200,-314095.5699,64859.48101,-249236.0889,300.4696589,0.95800248
14300,-313247.508,64114.4451,-249133.0629,297.0181868,0.95800248
14400,-314486.5252,65412.16949,-249074.3557,303.0300574,0.95800248
14500,-313908.3233,65225.14871,-248683.1746,302.1636602,0.95800248
14600,-313974.18,65289.31172,-248684.8683,302.4609034,0.95800248
14700,-314490.1608,65901.95593,-248588.2049,305.2990543,0.95800248
14800,-313821.2754,65373.98876,-248447.2866,302.8531804,0.95800248
14900,-313353.0187,65142.9917,-248210.027,301.7830576,0.95800248
15000,-312538.6332,64622.10726,-247916.5259,299.3699953,0.95800248
15100,-312961.5061,64954.33374,-248007.1724,300.909076,0.95800248
15200,-312565.1287,64751.23394,-247813.8947,299.9681908,0.95800248
15300,-312708.6189,64932.25698,-247776.3619,300.8068027,0.95800248
15400,-313268.9511,64954.27803,-248314.6731,300.9088179,0.95800248
15500,-313774.9418,65980.12623,-247794.8156,305.661188,0.95800248
15600,-313308.6007,65356.96688,-247951.6338,302.7743244,0.95800248
15700,-313595.776,65233.93962,-248361.8364,302.2043852,0.95800248
15800,-313465.0595,65124.87689,-248340.1826,301.6991385,0.95800248
15900,-313835.9509,65615.70982,-248220.2411,303.9729834,0.95800248
16000,-313392.1607,65070.74218,-248321.4185,301.4483527,0.95800248
16100,-313430.9545,65261.41639,-248169.5381,302.3316748,0.95800248
16200,-313001.1607,64838.84833,-248162.3123,300.3740754,0.95800248
16300,-313820.5504,65717.58257,-248102.9679,304.4449217,0.95800248
16400,-313911.712,65640.18315,-248271.5288,304.0863592,0.95800248
16500,-313420.7963,64972.80187,-248447.9944,300.9946319,0.95800248
16600,-313969.2675,65253.45306,-248715.8144,302.2947837,0.95800248
16700,-313840.3361,64886.68583,-248953.6503,300.5956886,0.95800248
16800,-314035.8701,65433.61417,-248602.2559,303.1294026,0.95800248
16900,-314103.5005,65113.83444,-248989.6661,301.6479829,0.95800248
17000,-313573.9192,64489.05313,-249084.8661,298.7536054,0.95800248
17100,-314014.0422,64892.49471,-249121.5475,300.622599,0.95800248
17200,-314496.474,65309.92914,-249186.5449,302.5564162,0.95800248
17300,-314193.3352,65184.21587,-249009.1194,301.9740337,0.95800248
17400,-314161.4245,65088.19049,-249073.234,301.5291841,0.95800248
17500,-314406.0408,65085.46189,-249320.5789,301.5165436,0.95800248
17600,-314200.945,64559.00029,-249641.9447,299.0776444,0.95800248
17700,-314794.8958,65369.15995,-249425.7358,302.8308103,0.95800248
17800,-314825.5715,64760.53319,-250065.0383,300.0112707,0.95800248
17900,-314698.853,64802.76343,-249896.0895,300.2069076,0.95800248
18000,-314303.2829,64411.34029,-249891.9426,298.3935909,0.95800248
18100,-314192.768,64803.85155,-249388.9164,300.2119485,0.95800248
18200,-313867.3982,64880.90854,-248986.4897,300.5689246,0.95800248
18300,-314191.2786,65114.42455,-249076.8541,301.6507167,0.95800248
18400,-314253.4542,65810.264,-248443.1902,304.87428,0.95800248
18500,-314381.6778,65472.54297,-248909.1349,303.3097451,0.95800248
18600,-314509.5689,65319.17933,-249190.3896,302.5992688,0.95800248
18700,-313996.7461,64799.08209,-249197.664,300.1898533,0.95800248
18800,-313898.0241,64838.99289,-249059.0312,300.3747451,0.95800248
18900,-314205.0297,65319.47374,-248885.556,302.6006327,0.95800248
19000,-313976.9645,65569.69243,-248407.2721,303.7598021,0.95800248
19100,-313891.7494,65457.3223,-248434.4271,303.2392334,0.95800248
19200,-313701.5874,65059.72501,-248641.8624,301.3973143,0.95800248
19300,-313825.0435,65081.18167,-248743.8618,301.4967149,0.95800248
19400,-314394.0668,65107.04064,-249287.0261,301.6165098,0.95800248
19500,-313871.7975,64934.06392,-248937.7335,300.8151735,0.95800248
19600,-314102.663,65261.92542,-248840.7376,302.3340329,0.95800248
19700,-313893.3409,65012.05681,-248881.2841,301.1764854,0.95800248
19800,-313943.9752,64827.26557,-249116.7096,300.3204168,0.95800248
19900,-313841.4177,64935.83748,-248905.5802,300.8233898,0.95800248
20000,-313487.7645,64784.89042,-248702.8741,300.1241086,0.95800248
20100,-313927.2909,65187.47015,-248739.8207,301.9891096,0.95800248
20200,-313434.825,64962.03495,-248472.79,300.9447528,0.95800248
20300,-313688.2753,64800.9725,-248887.3028,300.1986109,0.95800248
20400,-314095.459,64893.28951,-249202.1695,300.626281,0.95800248
20500,-313793.0743,64420.01594,-249373.0583,298.4337819,0.95800248
20600,-313476.6305,64505.65662,-248970.9739,298.8305231,0.95800248
20700,-314086.6169,65194.82435,-248891.7925,302.0231788,0.95800248
20800,-313999.6962,64887.72799,-249111.9682,300.6005165,0.95800248
20900,-314057.4016,64932.10925,-249125.2924,300.8061183,0.95800248
21000,-313817.6321,64821.82776,-248995.8043,300.2952255,0.95800248
21100,-313772.4048,64705.67914,-249066.7257,299.7571525,0.95800248
21200,-314301.1897,65216.01831,-249085.1714,302.1213625,0.95800248
21300,-313916.8527,64566.81283,-249350.0399,299.1138369,0.95800248
21400,-314491.5519,64999.8285,-249491.7234,301.1198362,0.95800248
21500,-314111.5524,64858.88698,-249252.6654,300.466907,0.95800248
21600,-313577.7223,64189.28828,-249388.434,297.3649072,0.95800248
21700,-314407.4447,65089.64058,-249317.8041,301.5359019,0.95800248
21800,-313805.0042,64493.79215,-249311.212,298.7755595,0.95800248
21900,-314260.2735,64886.07466,-249374.1988,300.5928573,0.95800248
22000,-314584.6848,65378.69749,-249205.9873,302.8749941,0.95800248
22100,-313797.0849,65009.04108,-248788.0438,301.1625146,0.95800248
22200,-313787.7564,64957.1504,-248830.606,300.9221245,0.95800248
22300,-314025.7723,65357.34493,-248668.4274,302.7760757,0.95800248
22400,-314476.7135,65578.62917,-248898.0844,303.8012027,0.95800248
22500,-314112.7224,65050.84782,-249061.8745,301.3561895,0.95800248
22600,-314021.8575,64797.25264,-249224.6049,300.1813782,0.95800248
22700,-313675.7398,64746.13987,-248929.6,299.9445919,0.95800248
22800,-314509.3676,65209.40736,-249299.9603,302.0907364,0.95800248
22900,-313641.9375,64481.35932,-249160.5782,298.7179629,0.95800248
23000,-313826.9467,64731.8987,-249095.048,299.8786179,0.95800248
23100,-314218.3734,65102.0424,-249116.331,301.5933549,0.95800248
23200,-313941.9276,64955.89971,-248986.0278,300.9163306,0.95800248
23300,-314277.2899,65326.47244,-248950.8175,302.6330551,0.95800248
23400,-314177.708,65007.00447,-249170.7035,301.1530797,0.95800248
23500,-314102.3696,64653.20069,-249449.1689,299.5140395,0.95800248
23600,-314321.9573,64561.78347,-249760.1738,299.0905378,0.95800248
23700,-314756.9612,64979.50227,-249777.4589,301.0256724,0.95800248
23800,-314759.745,64940.6098,-249819.1352,300.8454981,0.95800248
23900,-314648.4059,64371.86094,-250276.5449,298.2106979,0.95800248
24000,-314512.2776,63792.86305,-250719.4145,295.5284177,0.95800248
24100,-314626.0403,63989.01506,-250637.0252,296.4371165,0.95800248
24200,-314757.511,64396.92566,-250360.5853,298.3268133,0.95800248
24300,-315163.6067,64737.93562,-250425.6711,299.9065847,0.95800248
24400,-314774.4957,64467.61768,-250306.878,298.654303,0.95800248
24500,-314497.2123,64041.23522,-250455.977,296.6790329,0.95800248
24600,-314735.6662,63825.79451,-250909.8716,295.6809769,0.95800248
24700,-314456.4303,63884.43513,-250571.9952,295.9526369,0.95800248
24800,-314609.6137,64295.40989,-250314.2038,297.8565289,0.95800248
24900,-314831.3582,64577.09379,-250254.2644,299.1614647,0.95800248
25000,-314581.663,64277.11444,-250304.5485,297.7717729,0.95800248
25100,-314208.0459,63880.23393,-250327.812,295.9331743,0.95800248
25200,-314933.7865,64460.2655,-250473.521,298.6202431,0.95800248
25300,-314373.4401,64277.02555,-250096.4146,297.7713611,0.95800248
25400,-315071.5526,65027.21349,-250044.3392,301.2467006,0.95800248
25500,-314588.5544,64828.0178,-249760.5366,300.3239016,0.95800248
25600,-314616.9662,64835.6789,-249781.2873,300.3593926,0.95800248
25700,-314073.4425,64089.49877,-249983.9437,296.9026198,0.95800248
25800,-314231.7298,64423.5921,-249808.1377,298.450349,0.95800248
25900,-315146.105,65639.84727,-249506.2577,304.0848032,0.95800248
26000,-314765.0593,65411.81648,-249353.2429,303.028422,0.95800248
26100,-314220.2195,64781.17392,-249439.0455,300.1068915,0.95800248
26200,-314096.0445,64594.40634,-249501.6382,299.2416673,0.95800248
26300,-314268.4952,64804.55329,-249463.9419,300.2151994,0.95800248
26400,-314209.4871,64828.19022,-249381.2969,300.3247003,0.95800248
26500,-313929.0288,64685.76611,-249243.2627,299.6649028,0.95800248
26600,-314565.5022,65363.86336,-249201.6388,302.8062732,0.95800248
26700,-314197.237,65311.91469,-248885.3223,302.5656145,0.95800248
26800,-314441.6089,64950.23922,-249491.3697,300.8901076,0.95800248
26900,-313843.1404,64756.00408,-249087.1364,299.9902891,0.95800248
27000,-313805.1915,64931.67399,-248873.5175,300.8041019,0.95800248
27100,-314639.3243,65383.02985,-249256.2944,302.8950644,0.95800248
27200,-314493.5145,65307.90346,-249185.611,302.5470319,0.95800248
27300,-313934.239,64904.33243,-249029.9066,300.6774387,0.95800248
27400,-313883.7246,64767.86251,-249115.8621,300.0452247,0.95800248
27500,-313819.0403,65062.63398,-248756.4063,301.4107904,0.95800248
27600,-313314.2952,64327.31633,-248986.9788,298.0043394,0.95800248
27700,-313945.7021,65093.33784,-248852.3642,301.5530299,0.95800248
27800,-314484.0476,65496.35252,-248987.6951,303.4200458,0.95800248
27900,-313988.8307,64972.07107,-249016.7596,300.9912464,0.95800248
28000,-314400.1945,64889.53908,-249510.6555,300.6089066,0.95800248
28100,-314299.3372,64893.49654,-249405.8406,300.6272401,0.95800248
28200,-314003.4292,64963.39793,-249040.0313,300.951067,0.95800248
28300,-314200.4069,64938.67983,-249261.727,300.8365573,0.95800248
28400,-314957.2668,65384.80834,-249572.4585,302.9033034,0.95800248
28500,-314245.1067,64829.55882,-249415.5479,300.3310406,0.95800248
28600,-314928.972,65227.24713,-249701.7249,302.1733814,0.95800248
28700,-314573.4184,64697.53979,-249875.8786,299.7194459,0.95800248
28800,-314675.2675,64728.9939,-249946.2736,299.865161,0.95800248
28900,-315047.8893,64836.57491,-250211.3144,300.3635435,0.95800248
29000,-314968.25,64807.61278,-250160.6372,300.2293728,0.95800248
29100,-314619.2354,64841.0383,-249778.1971,300.3842207,0.95800248
29200,-314280.2263,64749.19943,-249531.0268,299.9587657,0.95800248
29300,-315164.1372,65242.17499,-249921.9622,302.2425366,0.95800248
29400,-314679.0673,64892.80361,-249786.2637,300.62403,0.95800248
29500,-314338.4274,64450.11432,-249888.3131,298.5732165,0.95800248
