#"Step","Potential Energy (kJ/mole)","Kinetic Energy (kJ/mole)","Total Energy (kJ/mole)","Temperature (K)","Density (g/mL)"
100,-401885.68706061924,70.79055995583688,-401814.8965006634,0.32764324139883255,0.9525552254942915
200,-401980.809157996,164.82582381683025,-401815.98333417915,0.7628710270870851,0.9525552254942915
300,-402063.15243609855,247.79968217114055,-401815.3527539274,1.1469027951580522,0.9525552254942915
400,-402164.37138222763,347.6434058786494,-401816.727976349,1.60901414572889,0.9525552254942915
500,-402251.02504287707,432.1281776493305,-401818.8968652277,2.0000389446435394,0.9525552254942915
600,-402308.54158190405,487.1261232771403,-401821.4154586269,2.2545884945696035,0.9525552254942915
700,-402395.33665847545,572.9608049609441,-401822.37585351453,2.651861144324928,0.9525552254942915
800,-402448.1040569707,629.0017742495866,-401819.1022827211,2.911238169175673,0.9525552254942915
900,-402559.18704211945,744.4025391604257,-401814.784502959,3.445352897168786,0.9525552254942915
1000,-402678.03121313127,859.1450284485613,-401818.8861846827,3.9764208974782798,0.9525552254942915
1100,-402702.04667066084,885.6568666016583,-401816.3898040592,4.099126871175069,0.9525552254942915
1200,-402754.9702335228,935.9818391886124,-401818.9883943342,4.332048282617266,0.9525552254942915
1300,-402860.7345616468,1042.8404518538064,-401817.894109793,4.826626970041813,0.9525552254942915
1400,-402960.7168668886,1144.1760201464285,-401816.54084674217,5.295643094297656,0.9525552254942915
1500,-403003.37663150346,1189.1205333071503,-401814.2560981963,5.503661875110494,0.9525552254942915
1600,-403076.23254391085,1258.0025644294783,-401818.2299794814,5.822471783735804,0.9525552254942915
1700,-403116.4445159831,1295.8378030694396,-401820.60671291366,5.997586378603098,0.9525552254942915
1800,-403191.59256982105,1372.5069591819138,-401819.08561063913,6.352437800030977,0.9525552254942915
1900,-403278.0982104321,1461.990986161752,-401816.10722427035,6.7666008843657455,0.9525552254942915
2000,-403289.71610867465,1473.697819745676,-401816.01828892896,6.820784166774395,0.9525552254942915
2100,-403373.5367720346,1554.733825950857,-401818.8029460837,7.195846883606206,0.9525552254942915
2200,-403438.326342775,1622.8169006552898,-401815.50944211974,7.510958945079877,0.9525552254942915
2300,-403490.61346591124,1675.6041667215068,-401815.0092991897,7.755276703963375,0.9525552254942915
2400,-403542.72104100743,1728.1873702450393,-401814.5336707624,7.998649990688792,0.9525552254942915
2500,-403550.74187429855,1736.0851142904396,-401814.65676000813,8.035203486810133,0.9525552254942915
2600,-403618.0144340028,1804.9471922435957,-401813.0672417592,8.353921045254461,0.9525552254942915
2700,-403660.92659052135,1845.2939679146575,-401815.6326226067,8.540659903784544,0.9525552254942915
2800,-403715.66138540814,1899.2266722277927,-401816.43471318035,8.790279147785217,0.9525552254942915
2900,-403752.4458839712,1935.790054631192,-401816.65582934,8.959507151273653,0.9525552254942915
3000,-403787.63678646693,1967.903987823991,-401819.73279864294,9.108141562018794,0.9525552254942915
3100,-403846.0572744389,2030.8681351553687,-401815.18913928355,9.399561453829739,0.9525552254942915
3200,-403887.33165010484,2076.661058581188,-401810.67059152364,9.611506971335523,0.9525552254942915
3300,-403895.0238773138,2083.579615442567,-401811.4442618713,9.643528449867102,0.9525552254942915
3400,-403914.67347036535,2102.240805436226,-401812.43266492913,9.729898903522168,0.9525552254942915
3500,-403958.152208772,2144.291305446939,-401813.8609033251,9.924523188660567,0.9525552254942915
3600,-403975.6784193148,2166.5086103852864,-401809.1698089295,10.027352574523423,0.9525552254942915
3700,-404026.4691791781,2212.2211458858546,-401814.24803329224,10.238926028855598,0.9525552254942915
3800,-404046.3344770395,2229.595090612169,-401816.73938642733,10.31933866536483,0.9525552254942915
3900,-404047.6000629524,2227.6998138041654,-401819.9002491482,10.310566667557358,0.9525552254942915
4000,-404083.5538942837,2268.0078262907136,-401815.546067993,10.497126116637524,0.9525552254942915
4100,-404062.7789808635,2250.9502405875983,-401811.82874027593,10.4181776993105,0.9525552254942915
4200,-404121.13981864066,2307.2028399184383,-401813.9369787222,10.678534221329317,0.9525552254942915
4300,-404144.6347304941,2329.7366974302386,-401814.89803306386,10.782828722192026,0.9525552254942915
4400,-404140.88559173094,2324.058878305026,-401816.8267134259,10.756549807836475,0.9525552254942915
4500,-404152.054159353,2336.712155505179,-401815.3420038478,10.815113559257037,0.9525552254942915
4600,-404211.3546227631,2396.8704253642754,-401814.4841973988,11.093546877850315,0.9525552254942915
4700,-404194.46621035645,2375.5002511681923,-401818.96595918824,10.994638306605358,0.9525552254942915
4800,-404229.7900694595,2410.3365050491466,-401819.45356441033,11.155872560817627,0.9525552254942915
4900,-404260.77868901426,2436.915425628118,-401823.8632633861,11.278889015226369,0.9525552254942915
5000,-404322.09054810787,2500.351466682354,-401821.73908142553,11.572492994704504,0.9525552254942915
5100,-404281.33379038284,2463.221383853099,-401818.1124065297,11.40064210527555,0.9525552254942915
5200,-404320.41863441793,2508.9283239585766,-401811.49031045934,11.612189662180363,0.9525552254942915
5300,-404340.7568688714,2523.348661177975,-401817.4082076934,11.678931979681108,0.9525552254942915
5400,-404368.70401164284,2549.198284883399,-401819.50572675944,11.79857299544746,0.9525552254942915
5500,-404348.98096701736,2528.540050629297,-401820.44091638806,11.702959528951181,0.9525552254942915
5600,-404394.98568652244,2575.401731872691,-401819.58395464974,11.919851627976293,0.9525552254942915
5700,-404447.2732821335,2627.3620792224483,-401819.91120291105,12.160342120501065,0.9525552254942915
5800,-404423.8700871696,2607.716360396993,-401816.1537267726,12.069414926259377,0.9525552254942915
5900,-404409.62662944244,2596.483552719168,-401813.14307672327,12.017425600000788,0.9525552254942915
6000,-404441.5400579423,2625.3971356958127,-401816.1429222465,12.151247680979267,0.9525552254942915
6100,-404467.3517849748,2651.3295495812217,-401816.0222353936,12.27127187838655,0.9525552254942915
6200,-404501.8097548899,2679.412442479628,-401822.3973124103,12.401249237837165,0.9525552254942915
6300,-404472.15990755474,2657.0881693282763,-401815.07173822646,12.297924766018536,0.9525552254942915
6400,-404528.72458860883,2712.8994776973523,-401815.8251109115,12.556238840552794,0.9525552254942915
6500,-404568.729776178,2750.3689189020515,-401818.36085727595,12.729660398135746,0.9525552254942915
6600,-404531.80571269104,2712.787911671132,-401819.0178010199,12.55572247432425,0.9525552254942915
6700,-404589.0799640897,2771.9402815710737,-401817.1396825186,12.829500139348097,0.9525552254942915
6800,-404569.3973697745,2749.6386009757516,-401819.7587687988,12.726280233707412,0.9525552254942915
6900,-404597.1569858161,2781.171792025203,-401815.98519379087,12.87222676857783,0.9525552254942915
7000,-404562.1882814341,2751.0093005964154,-401811.1789808377,12.732624306518513,0.9525552254942915
7100,-404589.4201954962,2773.458123126613,-401815.9620723696,12.836525236020549,0.9525552254942915
7200,-404626.2594483015,2809.402830862782,-401816.8566174387,13.002889798769585,0.9525552254942915
7300,-404609.09556002216,2790.5500203227193,-401818.54553969944,12.915632458826549,0.9525552254942915
7400,-404619.5200915565,2803.4895912888005,-401816.0305002677,12.97552127700064,0.9525552254942915
7500,-404619.88257856155,2800.685869004178,-401819.1967095574,12.96254467873826,0.9525552254942915
7600,-404694.44770819996,2874.936673694734,-401819.5110345052,13.306203131792769,0.9525552254942915
7700,-404706.4551334386,2885.191732211126,-401821.2634012274,13.35366709612843,0.9525552254942915
7800,-404660.7000677665,2844.6298501322435,-401816.07021763426,13.165932650605564,0.9525552254942915
7900,-404675.38529917086,2858.42969315576,-401816.9556060151,13.229803105957814,0.9525552254942915
8000,-404740.8298381199,2919.8375716383753,-401820.9922664815,13.514020046267673,0.9525552254942915
8100,-404716.5133441896,2896.116484223159,-401820.39685996645,13.40423063402012,0.9525552254942915
8200,-404701.1341563682,2879.3485099293785,-401821.78564643883,13.32662263864992,0.9525552254942915
8300,-404738.0067617246,2922.4907987135302,-401815.5159630111,13.526300100551934,0.9525552254942915
8400,-404720.7384059285,2903.6028349731923,-401817.1355709553,13.438880059416949,0.9525552254942915
8500,-404760.1308317357,2940.8959685591435,-401819.23486317653,13.61148560424727,0.9525552254942915
8600,-404764.6993461042,2941.3276208494563,-401823.3717252547,13.613483440620417,0.9525552254942915
8700,-404770.8581779585,2952.383364927458,-401818.4748130311,13.664653255184001,0.9525552254942915
8800,-404768.9763242998,2953.347797936288,-401815.6285263635,13.669116985338448,0.9525552254942915
8900,-404746.03916946566,2929.982166991136,-401816.0570024745,13.560972748805014,0.9525552254942915
9000,-404867.5232706019,3050.434832922787,-401817.0884376791,14.118469425277096,0.9525552254942915
9100,-404768.19276825385,2945.1754193685592,-401823.0173488853,13.631292385483052,0.9525552254942915
9200,-404800.14825270744,2979.672700011768,-401820.4755526957,13.79095775409205,0.9525552254942915
9300,-404854.986842657,3033.679046867459,-401821.3077957895,14.04091784129785,0.9525552254942915
9400,-404842.3210802735,3016.8798097657873,-401825.4412705077,13.963165150819725,0.9525552254942915
9500,-404791.45891461754,2969.1774770215998,-401822.28143759596,13.742382225351388,0.9525552254942915
9600,-404806.3722717804,2991.2772387686564,-401815.09503301175,13.844667580594585,0.9525552254942915
9700,-404838.5264618909,3022.994499327957,-401815.53196256293,13.991466052939254,0.9525552254942915
9800,-404834.55250008637,3017.6276900827907,-401816.9248100036,13.966626600077849,0.9525552254942915
9900,-404864.17607032275,3046.9216330313084,-401817.2544372914,14.10220911880623,0.9525552254942915
10000,-404847.5215948182,3031.8176890316827,-401815.7039057865,14.032302832247245,0.9525552254942915
10100,-404852.1476850505,3034.1968406044907,-401817.950844446,14.043314370135633,0.9525552254942915
10200,-404847.6922137034,3030.41233214939,-401817.279881554,14.025798353620095,0.9525552254942915
10300,-404858.77127538295,3039.7473137292254,-401819.0239616537,14.069003883073794,0.9525552254942915
10400,-404889.3691087663,3064.5754642113316,-401824.793644555,14.183917166807815,0.9525552254942915
10500,-404907.63825741643,3081.0050738242717,-401826.6331835922,14.259959093186973,0.9525552254942915
10600,-404915.23438310856,3088.7531021223367,-401826.4812809862,14.295819652951039,0.9525552254942915
10700,-404873.3121593972,3051.4624319697687,-401821.8497274274,14.123225509744028,0.9525552254942915
10800,-404924.6548927636,3103.0259036734387,-401821.62898909015,14.361879124255724,0.9525552254942915
10900,-404906.356474495,3086.213452057973,-401820.14302243706,14.284065272428748,0.9525552254942915
11000,-404897.94678752543,3080.161398764907,-401817.7853887605,14.256054272666976,0.9525552254942915
11100,-404931.6143952445,3112.0090236366223,-401819.6053716079,14.403456116222566,0.9525552254942915
11200,-404929.13835759694,3109.843210543052,-401819.2951470539,14.39343198274087,0.9525552254942915
11300,-404937.5565110245,3113.740855695949,-401823.8156553285,14.41147163509726,0.9525552254942915
11400,-404950.5437971023,3124.736767941049,-401825.80702916125,14.462364527205606,0.9525552254942915
11500,-404929.8330953936,3108.551217177981,-401821.2818782156,14.387452189753475,0.9525552254942915
11600,-404958.56712101167,3136.7975147387588,-401821.7696062729,14.518185842603554,0.9525552254942915
11700,-404958.4558543889,3141.617447819088,-401816.8384065698,14.540494163073822,0.9525552254942915
11800,-404950.3253518925,3131.0095527638678,-401819.3157991286,14.491397148973647,0.9525552254942915
11900,-404982.5699087479,3162.842547441476,-401819.72736130643,14.638731278921343,0.9525552254942915
12000,-404972.8555488796,3157.216276445535,-401815.63927243405,14.612690947170211,0.9525552254942915
12100,-404956.9410919477,3139.9522359991934,-401816.98885594856,14.532786985752068,0.9525552254942915
12200,-404984.9144630362,3165.2384575719625,-401819.6760054643,14.649820381221742,0.9525552254942915
12300,-404926.5595722073,3111.770019691734,-401814.78955251555,14.402349923147401,0.9525552254942915
12400,-404981.9432550804,3166.36812584594,-401815.57512923446,14.655048877439633,0.9525552254942915
12500,-404965.496275241,3153.1792238400167,-401812.317051401,14.594006068816446,0.9525552254942915
12600,-404981.18184014736,3165.1324798445276,-401816.04936030286,14.649329879576403,0.9525552254942915
12700,-404963.5333843394,3147.4769580338234,-401816.0564263056,14.5676140067502,0.9525552254942915
12800,-405005.08198939497,3184.5357121295892,-401820.54627726536,14.739134762084158,0.9525552254942915
12900,-405019.12549381563,3199.9331359693697,-401819.19235784624,14.810399375038266,0.9525552254942915
13000,-404979.16191638494,3165.441035358919,-401813.720881026,14.650757981415827,0.9525552254942915
13100,-405012.5956555852,3196.4520940156,-401816.14356156957,14.794287906646295,0.9525552254942915
13200,-405003.15206200397,3188.655110554202,-401814.4969514498,14.758200765422673,0.9525552254942915
13300,-404994.32747179875,3174.259236266029,-401820.06823553273,14.69157167084439,0.9525552254942915
13400,-404990.91185787367,3170.8031759119585,-401820.1086819617,14.6755758259523,0.9525552254942915
13500,-405030.2824420505,3218.780781668328,-401811.5016603822,14.897632810306979,0.9525552254942915
13600,-405004.2915516109,3186.6983596613136,-401817.5931919496,14.74914424424872,0.9525552254942915
13700,-404994.664906329,3177.4697925328364,-401817.19511379616,14.70643123775001,0.9525552254942915
13800,-405023.5691908025,3208.8727747892917,-401814.69641601323,14.851775121207266,0.9525552254942915
13900,-405042.86880351463,3226.843285087227,-401816.0255184274,14.93494886990031,0.9525552254942915
14000,-405048.22988763126,3227.7900573481747,-401820.43983028305,14.939330859993861,0.9525552254942915
14100,-405076.2555979737,3255.200162514695,-401821.055435459,15.06619432469091,0.9525552254942915
14200,-405076.1847273004,3255.695341390583,-401820.48938590987,15.068486184114953,0.9525552254942915
14300,-405053.6877090703,3238.836142201846,-401814.8515668684,14.990455968320187,0.9525552254942915
14400,-405042.36487526307,3223.816138941793,-401818.5487363213,14.920938188590588,0.9525552254942915
14500,-405057.2155390396,3237.5236179044296,-401819.6919211352,14.98438115106364,0.9525552254942915
14600,-405088.91482969327,3271.9457387869697,-401816.9690909063,15.143698654256353,0.9525552254942915
14700,-405088.1054618717,3268.2139783158837,-401819.89148355584,15.126426773688754,0.9525552254942915
14800,-405062.6929334942,3241.4698102800467,-401821.2231232142,15.002645496789075,0.9525552254942915
14900,-405085.52758085774,3265.6785559586597,-401819.8490248991,15.114691960460068,0.9525552254942915
15000,-405098.159168093,3276.27748151742,-401821.8816865756,15.163747460622568,0.9525552254942915
15100,-405113.04108493635,3292.6888633203307,-401820.352221616,15.239705022380718,0.9525552254942915
15200,-405094.96369249607,3272.678047966775,-401822.2856445293,15.147088034895907,0.9525552254942915
15300,-405116.71986209834,3292.9535684092207,-401823.76629368914,15.240930169256131,0.9525552254942915
15400,-405175.6368253273,3357.81673764655,-401817.82008768077,15.541139392485581,0.9525552254942915
15500,-405103.5660201474,3284.477140616742,-401819.08887953067,15.201698324231266,0.9525552254942915
15600,-405122.5337885716,3305.0504556928827,-401817.48333287874,15.296918755346255,0.9525552254942915
15700,-405133.7227000487,3314.546836124937,-401819.17586392374,15.34087129461499,0.9525552254942915
15800,-405165.2386098406,3343.495335107942,-401821.74327473267,15.474854978969793,0.9525552254942915
15900,-405174.06418226333,3350.04040846508,-401824.02377379825,15.505147846426466,0.9525552254942915
16000,-405163.8470606096,3341.7025595425366,-401822.14450106706,15.466557392431186,0.9525552254942915
16100,-405166.52577243233,3347.947298596955,-401818.57847383537,15.495460208664817,0.9525552254942915
16200,-405177.4130853773,3358.973101556876,-401818.4399838204,15.546491445358905,0.9525552254942915
16300,-405162.82144676195,3342.98864356424,-401819.8328031977,15.472509834929804,0.9525552254942915
16400,-405212.4578714953,3392.5483027610135,-401819.9095687343,15.701889110810406,0.9525552254942915
16500,-405213.3134185993,3395.233149595937,-401818.0802690034,15.714315512299567,0.9525552254942915
16600,-405198.35913890833,3380.93089478046,-401817.4282441279,15.648119721081384,0.9525552254942915
16700,-405173.57002261886,3359.5248572025193,-401814.0451654163,15.549045161678023,0.9525552254942915
16800,-405222.9907571529,3404.4120773660925,-401818.5786797868,15.75679877064723,0.9525552254942915
16900,-405212.54733880097,3393.4922222543173,-401819.05511654663,15.706257897306779,0.9525552254942915
17000,-405223.96842241706,3404.2631775164436,-401819.7052449006,15.756109610547165,0.9525552254942915
17100,-405230.61853638524,3410.5240033971713,-401820.0945329881,15.785086882187272,0.9525552254942915
17200,-405227.7434137077,3410.1810104062242,-401817.5624033015,15.78349939177328,0.9525552254942915
17300,-405240.4270788529,3422.197937774914,-401818.22914107796,15.839117895669673,0.9525552254942915
17400,-405274.56631489354,3459.1960222299485,-401815.3702926636,16.010357850883448,0.9525552254942915
17500,-405234.15845536673,3414.243440718208,-401819.9150146485,15.802301726946297,0.9525552254942915
17600,-405235.399266765,3415.195707905681,-401820.2035588593,15.806709149463874,0.9525552254942915
17700,-405253.1620115102,3432.4073858294178,-401820.7546256808,15.886370758983054,0.9525552254942915
17800,-405303.6304180813,3482.4828221549433,-401821.14759592636,16.118137230139542,0.9525552254942915
17900,-405251.5400462183,3429.745090506982,-401821.79495571135,15.874048733708099,0.9525552254942915
18000,-405284.8092210428,3466.6401195706603,-401818.16910147213,16.044811712860533,0.9525552254942915
18100,-405284.49535816954,3461.919572464729,-401822.57578570483,16.022963385118416,0.9525552254942915
18200,-405250.2969573238,3430.398063328499,-401819.89889399527,15.877070918190336,0.9525552254942915
18300,-405310.14192418056,3490.237634473633,-401819.9042897069,16.154029188701816,0.9525552254942915
18400,-405244.79227335984,3425.368433143429,-401819.4238402164,15.853792046856334,0.9525552254942915
18500,-405297.02540267864,3473.602547625007,-401823.4228550536,16.077036242475153,0.9525552254942915
18600,-405296.62633508863,3481.9359849289513,-401814.69035015965,16.11560627797087,0.9525552254942915
18700,-405302.84527806984,3485.4280338644203,-401817.4172442054,16.13176869048822,0.9525552254942915
18800,-405261.03902555676,3442.8397355107327,-401818.199290046,15.934655288263857,0.9525552254942915
18900,-405307.5384463784,3488.8636235022495,-401818.6748228762,16.147669789812152,0.9525552254942915
19000,-405301.97827752726,3478.7397647112957,-401823.23851281597,16.10081306326837,0.9525552254942915
19100,-405293.01421857486,3475.257083722895,-401817.75713485194,16.08469400885617,0.9525552254942915
19200,-405274.82726869034,3458.080852559353,-401816.746416131,16.005196459225978,0.9525552254942915
19300,-405345.09743143106,3523.9459193983603,-401821.1515120327,16.310042811727584,0.9525552254942915
19400,-405330.15174783254,3508.5064810347612,-401821.6452667978,16.23858374099862,0.9525552254942915
19500,-405327.4894787879,3504.959195802985,-401822.5302829849,16.222165675761808,0.9525552254942915
19600,-405310.0576557652,3492.5983190571033,-401817.4593367081,16.16495525496448,0.9525552254942915
19700,-405302.23248393694,3483.5936180124336,-401818.6388659245,16.12327837827437,0.9525552254942915
19800,-405297.5758553636,3478.540956194687,-401819.03489916894,16.099892908563557,0.9525552254942915
