#"Step","Potential Energy (kJ/mole)","Kinetic Energy (kJ/mole)","Total Energy (kJ/mole)","Temperature (K)","Density (g/mL)"
100,-398179.6637812136,3300.6879051313244,-394878.97587608226,15.276727359662324,0.9525552254942915
200,-395374.1611429029,6068.987132008959,-389305.17401089397,28.089375436212595,0.9525552254942915
300,-393005.54987276765,8650.740447929638,-384354.809424838,40.03862439607606,0.9525552254942915
400,-390806.7640217976,10848.411440898853,-379958.35258089873,50.21020727540112,0.9525552254942915
500,-388903.9063196876,12966.462686496321,-375937.4436331913,60.01328237452907,0.9525552254942915
600,-387195.5495861494,15026.972860081965,-372168.57672606746,69.55003745359674,0.9525552254942915
700,-385564.9548099437,16744.21546553675,-368820.73934440693,77.49803128032151,0.9525552254942915
800,-384215.50732601667,18359.17120699647,-365856.3361190202,84.97260605664225,0.9525552254942915
900,-382705.0147032165,19602.42797561871,-363102.5867275978,90.72682918775679,0.9525552254942915
1000,-381377.8443507706,20872.99991706322,-360504.84443370736,96.60747640378385,0.9525552254942915
1100,-380489.8719560937,22067.509441054164,-358422.3625150395,102.13608039513989,0.9525552254942915
1200,-379683.34483551467,23215.192181570572,-356468.1526539441,107.44795380643767,0.9525552254942915
1300,-378957.9362275773,24186.551181941206,-354771.3850456361,111.94373984968851,0.9525552254942915
1400,-377988.1726964251,24823.17304330629,-353164.99965311884,114.89024642250192,0.9525552254942915
1500,-377359.1799002127,25485.687459237757,-351873.4924409749,117.95659270998233,0.9525552254942915
1600,-376682.75035520876,26096.33331046751,-350586.4170447412,120.78287330683709,0.9525552254942915
1700,-376568.82963011274,27037.22610718402,-349531.6035229287,125.13765120260922,0.9525552254942915
1800,-375877.2075806041,27186.99475233673,-348690.21282826737,125.83083238931489,0.9525552254942915
1900,-375553.9828664432,27935.18490545964,-347618.7979609836,129.29371567636346,0.9525552254942915
2000,-375108.5919987918,28196.166958340677,-346912.4250404511,130.50163105104352,0.9525552254942915
2100,-375090.2853608667,29088.190392921068,-346002.0949679456,134.63022460492937,0.9525552254942915
2200,-374304.76850364404,28989.9831327633,-345314.78537088074,134.17568737472436,0.9525552254942915
2300,-374642.26353590796,29842.64001609097,-344799.623519817,138.12207888834973,0.9525552254942915
2400,-374491.84760256624,30181.810765521484,-344310.03683704475,139.6918786441422,0.9525552254942915
2500,-374069.466726935,30230.218855414074,-343839.2478715209,139.9159280582481,0.9525552254942915
2600,-373905.5997009282,30391.631595651037,-343513.96810527716,140.6630021518462,0.9525552254942915
2700,-373651.17646756675,30513.80329391884,-343137.3731736479,141.22845510563883,0.9525552254942915
2800,-373751.55410111183,30854.751016283815,-342896.803084828,142.80647930791804,0.9525552254942915
2900,-373919.81621197844,31287.312020618585,-342632.50419135985,144.8085215244423,0.9525552254942915
3000,-373337.27423284156,31218.83626364899,-342118.4379691926,144.49159199337558,0.9525552254942915
3100,-373331.50592359155,31315.815884558717,-342015.69003903284,144.9404472837464,0.9525552254942915
3200,-373444.3413087679,31409.06354308568,-342035.2777656822,145.37202975903247,0.9525552254942915
3300,-373862.97703872295,31887.761790443008,-341975.21524828,147.58761112346784,0.9525552254942915
3400,-373697.53789323056,31976.277033967315,-341721.26085926325,147.99729034227332,0.9525552254942915
3500,-373094.1784230233,31705.296013634652,-341388.88240938867,146.7430962814445,0.9525552254942915
3600,-373332.74868229823,31975.50595240522,-341357.242729893,147.99372150961335,0.9525552254942915
3700,-373132.1066329782,31542.855889107217,-341589.250743871,145.99126709734705,0.9525552254942915
3800,-373397.125766007,32020.808418840985,-341376.317347166,148.20339702221895,0.9525552254942915
3900,-373477.39091018704,32304.463167771115,-341172.9277424159,149.51624949062176,0.9525552254942915
4000,-373546.2051032579,32335.165525621473,-341211.0395776364,149.65835064155144,0.9525552254942915
4100,-373658.9225216792,32455.56932447711,-341203.3531972021,150.21562114426257,0.9525552254942915
4200,-373964.37106531346,32543.299493789862,-341421.0715715236,150.62166676757775,0.9525552254942915
4300,-373949.82001690613,32427.135660057946,-341522.6843568482,150.08402029266662,0.9525552254942915
4400,-374107.70200410346,32478.967007011874,-341628.7349970916,150.32391372665907,0.9525552254942915
4500,-374047.21209521824,32351.53152711253,-341695.6805681057,149.7340981675014,0.9525552254942915
4600,-374067.33798124874,32653.242909381923,-341414.0950718668,151.13052299187538,0.9525552254942915
4700,-374088.3288433724,32505.831988697144,-341582.49685467524,150.44825417099196,0.9525552254942915
4800,-374342.8021855657,32766.796734827774,-341576.0054507379,151.65608944403405,0.9525552254942915
4900,-374195.4771736027,32549.01267107323,-341646.4645025295,150.64810933174132,0.9525552254942915
5000,-374293.2506302898,32572.543253762473,-341720.7073765273,150.75701702210455,0.9525552254942915
5100,-374579.9476950937,32848.59516590422,-341731.3525291895,152.034680927361,0.9525552254942915
5200,-374734.4713705168,32846.58846093128,-341887.88290958555,152.02539320139476,0.9525552254942915
5300,-374548.2761526494,32645.537344431563,-341902.73880821787,151.09485896719863,0.9525552254942915
5400,-374277.73131532455,32373.958802287874,-341903.7725130367,149.8378993683787,0.9525552254942915
5500,-374574.39562550606,32578.716265753203,-341995.67935975286,150.785587860633,0.9525552254942915
5600,-374682.11212080205,32686.202107020974,-341995.91001378105,151.28306957937377,0.9525552254942915
5700,-375076.9682188616,33017.47354098456,-342059.49467787705,152.81630856596155,0.9525552254942915
5800,-375160.6411084258,32863.14400174594,-342297.49710667983,152.10201798101244,0.9525552254942915
5900,-375048.4810909652,32696.998671007314,-342351.4824199579,151.33303981866362,0.9525552254942915
6000,-375055.5754638384,32623.072263468057,-342432.50320037035,150.99088278803347,0.9525552254942915
6100,-374938.50067467196,32618.54949723283,-342319.9511774391,150.96994985869483,0.9525552254942915
6200,-375129.19668847555,33033.29670527304,-342095.8999832025,152.8895436532373,0.9525552254942915
6300,-375024.47741050506,32824.1323920851,-342200.34501841996,151.92145873343145,0.9525552254942915
6400,-375091.1394741498,32723.50636495941,-342367.6331091904,151.4557266115621,0.9525552254942915
6500,-375464.54114276683,32937.64423472629,-342526.8969080405,152.44683087462252,0.9525552254942915
6600,-375676.0155684068,33001.93896653876,-342674.07660186803,152.74440917247819,0.9525552254942915
6700,-375595.4288538047,32759.21063928603,-342836.2182145187,151.62097836517822,0.9525552254942915
6800,-375382.92224408407,32446.63955154759,-342936.2826925365,150.17429106085302,0.9525552254942915
6900,-375496.83349626,32569.33157140814,-342927.50192485185,150.74215224327565,0.9525552254942915
7000,-375945.9136173078,32915.450493363256,-343030.46312394453,152.3441105491513,0.9525552254942915
7100,-376057.07076551905,32866.46911414547,-343190.60165137355,152.1174077533956,0.9525552254942915
7200,-376056.55054550385,32859.20842488308,-343197.3421206208,152.0838027675585,0.9525552254942915
7300,-376137.16636997694,32729.578900645894,-343407.58746933105,151.48383241093808,0.9525552254942915
7400,-376479.0302112722,33116.065410720155,-343362.964800552,153.27262590256538,0.9525552254942915
7500,-376173.7071064403,32757.408076719556,-343416.2990297208,151.61263548100735,0.9525552254942915
7600,-375979.9057043013,32527.888257190207,-343452.0174471111,150.55033822438463,0.9525552254942915
7700,-376385.12681848486,32895.25550478733,-343489.87131369754,152.25064114417478,0.9525552254942915
7800,-376067.0786526515,32441.963375449006,-343625.1152772025,150.1526480975081,0.9525552254942915
7900,-376399.3357880586,32668.629283757677,-343730.70650430094,151.20173646408116,0.9525552254942915
8000,-376607.3572165244,32742.196556518466,-343865.160660006,151.5422312945113,0.9525552254942915
8100,-376289.4502480724,32413.483844766568,-343875.9664033058,150.02083496095239,0.9525552254942915
8200,-376874.78740669275,33008.63799668694,-343866.1494100058,152.775414605312,0.9525552254942915
8300,-376958.83032078715,33084.44184441457,-343874.3884763726,153.1262610796933,0.9525552254942915
8400,-376588.79873882,32665.59137002437,-343923.20736879564,151.18767594664365,0.9525552254942915
8500,-376427.8382685692,32301.449801147624,-344126.3884674216,149.5023025857144,0.9525552254942915
8600,-376841.86996702757,32736.351994199096,-344105.5179728285,151.51518063487435,0.9525552254942915
8700,-377142.60446200403,32759.46581601398,-344383.13864599005,151.6221594114975,0.9525552254942915
8800,-376962.6801708196,32694.336085980816,-344268.3440848388,151.32071645253788,0.9525552254942915
8900,-376627.53234365257,32331.306527972338,-344296.2258156802,149.64048986323434,0.9525552254942915
9000,-376949.4441972417,32574.40599294752,-344375.03820429416,150.76563842451822,0.9525552254942915
9100,-377115.41765056225,32671.66852304095,-344443.7491275213,151.21580311662325,0.9525552254942915
9200,-377114.53417777875,32666.142558914842,-344448.3916188639,151.19022703982347,0.9525552254942915
9300,-377307.7949283072,32554.382901434845,-344753.41202687233,150.67296461871513,0.9525552254942915
9400,-377292.32410190674,32427.610179592448,-344864.7139223143,150.0862165335,0.9525552254942915
9500,-377427.8437725962,32567.440206933068,-344860.40356566315,150.73339835310065,0.9525552254942915
9600,-377276.49634573655,32324.409160078794,-344952.08718565776,149.60856645458819,0.9525552254942915
9700,-377704.57365182275,32999.92389202345,-344704.6497597993,152.7350827093697,0.9525552254942915
9800,-377437.73243474355,32885.443339450285,-344552.28909529326,152.20522704294186,0.9525552254942915
9900,-377549.6832003114,33006.3625224992,-344543.3206778122,152.76488292228734,0.9525552254942915
10000,-377762.7484015911,32878.09772263176,-344884.6506789593,152.17122898294633,0.9525552254942915
10100,-377438.15277003543,32546.662652373692,-344891.4901176618,150.63723263088542,0.9525552254942915
10200,-377527.9395921617,32696.27812397336,-344831.66146818834,151.3297048773108,0.9525552254942915
10300,-377486.6835837704,32518.738585063955,-344967.94499870646,150.50799037129445,0.9525552254942915
10400,-377817.2543296949,32765.089776987326,-345052.1645527076,151.64818905166362,0.9525552254942915
10500,-377926.7766980366,32528.253838844394,-345398.5228591922,150.5520302629594,0.9525552254942915
10600,-378008.71312999306,32569.92868346983,-345438.78444652323,150.74491588480487,0.9525552254942915
10700,-377877.1347425957,32187.98259882856,-345689.15214376716,148.9771370554026,0.9525552254942915
10800,-377956.6786281266,32328.82529557956,-345627.85333254706,149.6290058599387,0.9525552254942915
10900,-378033.5523415231,32571.219137643493,-345462.33320387965,150.75088855388105,0.9525552254942915
11000,-377841.84828451695,32371.229360967176,-345470.6189235498,149.82526656815676,0.9525552254942915
11100,-377982.8794472334,32308.749105269788,-345674.1303419636,149.53608629450315,0.9525552254942915
11200,-378316.149760616,32606.504936984158,-345709.64482363185,150.9142034602547,0.9525552254942915
11300,-377920.01828018203,32277.92521025648,-345642.09306992556,149.39342262746905,0.9525552254942915
11400,-378160.36299615493,32545.848200547625,-345614.5147956073,150.6334630656154,0.9525552254942915
11500,-378343.4530922235,32519.491325966257,-345823.96176625724,150.51147431702557,0.9525552254942915
11600,-378426.4790759324,32417.84357781397,-346008.63549811847,150.04101331620453,0.9525552254942915
11700,-378164.0413299375,32241.264302902506,-345922.777027035,149.22374324471562,0.9525552254942915
11800,-378209.14288304606,32552.325520676386,-345656.8173623697,150.66344234765367,0.9525552254942915
11900,-378052.9275798411,32356.863451223835,-345696.0641286173,149.7587761598751,0.9525552254942915
12000,-378281.6804971867,32638.041228233196,-345643.6392689535,151.06016434392305,0.9525552254942915
12100,-378394.0304400581,32643.80846494774,-345750.22197511035,151.08685711386647,0.9525552254942915
12200,-378319.472377121,32506.607572265144,-345812.86480485584,150.45184384049523,0.9525552254942915
12300,-378215.8567729038,32286.072111108777,-345929.784661795,149.43112930762905,0.9525552254942915
12400,-378669.15163659723,32863.067755896074,-345806.08388070116,152.101665088799,0.9525552254942915
12500,-378734.21788513334,32751.78114356671,-345982.43674156663,151.58659208456461,0.9525552254942915
12600,-378841.6562042725,32664.149583386155,-346177.5066208864,151.18100285848269,0.9525552254942915
12700,-378755.2913099774,32277.007497018552,-346478.28381295886,149.38917513260338,0.9525552254942915
12800,-378877.8975420878,32335.088261965167,-346542.80928012263,149.65799303857708,0.9525552254942915
12900,-378775.2956550927,32177.03848941764,-346598.25716567505,148.92648392476127,0.9525552254942915
13000,-378948.48114774236,32380.620035276632,-346567.86111246573,149.86872986286147,0.9525552254942915
13100,-379159.0002124212,32603.94563940054,-346555.05457302066,150.90235814420515,0.9525552254942915
13200,-378854.68092092173,32224.198400065565,-346630.4825208562,149.14475633281123,0.9525552254942915
13300,-378821.2125418917,32174.676315324643,-346646.5362265671,148.91555096453237,0.9525552254942915
13400,-379050.2848577746,32387.419569744787,-346662.86528802983,149.90020046451426,0.9525552254942915
13500,-379015.4163631615,32313.934838499234,-346701.4815246623,149.56008766481844,0.9525552254942915
13600,-378868.18689568294,32357.724989162525,-346510.4619065204,149.76276365599034,0.9525552254942915
13700,-379097.21922968,32610.26562587553,-346486.95360380446,150.9316092315755,0.9525552254942915
13800,-379080.5066543021,32498.075617214025,-346582.4310370881,150.41235499607643,0.9525552254942915
13900,-379195.4718281762,32520.097579498834,-346675.37424867734,150.5142802684497,0.9525552254942915
14000,-378935.24319720874,32336.314853918622,-346598.9283432901,149.66367013116903,0.9525552254942915
14100,-379247.9803468012,32709.27857324184,-346538.7017735594,151.3898754613636,0.9525552254942915
14200,-378985.8842051821,32468.331595148076,-346517.552610034,150.27468935523385,0.9525552254942915
14300,-379300.3493969352,32878.63902118703,-346421.71037574817,152.17373430022766,0.9525552254942915
14400,-378850.22600031504,32151.15030978172,-346699.0756905333,148.80666445878842,0.9525552254942915
14500,-379380.8431363241,32684.560691977502,-346696.2824443466,151.27547254177924,0.9525552254942915
14600,-379109.65784725035,32541.400048381533,-346568.2577988688,150.61287547604348,0.9525552254942915
14700,-379197.0574856647,32514.50104505988,-346682.55644060485,150.48837756778846,0.9525552254942915
14800,-379177.71252834564,32650.094847911234,-346527.6176804344,151.11595267254154,0.9525552254942915
14900,-379108.31690313155,32616.510150393908,-346491.8067527376,150.96051105486197,0.9525552254942915
15000,-379173.18730241293,32668.77763062925,-346504.4096717837,151.2024230648071,0.9525552254942915
15100,-379357.57738863816,32867.361470892254,-346490.2159177459,152.12153788963388,0.9525552254942915
15200,-379376.97454278404,32825.56095254677,-346551.41359023727,151.92807060626433,0.9525552254942915
15300,-379290.69809370534,32468.4117905639,-346822.28630314145,150.2750605274071,0.9525552254942915
15400,-379588.0031214715,32500.001931078034,-347088.00119039346,150.42127064413387,0.9525552254942915
15500,-379701.1066196435,32485.13943559327,-347215.96718405024,150.352481864967,0.9525552254942915
15600,-379766.3640285614,32457.651103223427,-347308.71292533795,150.2252563376661,0.9525552254942915
15700,-379820.1431107358,32250.35309868178,-347569.790012054,149.26580934097746,0.9525552254942915
15800,-380033.6132330443,32266.901039602817,-347766.71219344146,149.34239894565394,0.9525552254942915
15900,-379822.3583265287,32031.534469611463,-347790.8238569172,148.25304090191193,0.9525552254942915
16000,-379882.4205179778,32062.76878578181,-347819.651732196,148.3976041402775,0.9525552254942915
16100,-379835.03799487697,32227.89228762607,-347607.1457072509,149.16185292442518,0.9525552254942915
16200,-380050.1478052321,32211.9147981423,-347838.2330070898,149.08790356666978,0.9525552254942915
16300,-379800.04401194444,32097.361380101298,-347702.68263184314,148.55771065360784,0.9525552254942915
16400,-380018.12521319697,32388.674580280727,-347629.45063291624,149.90600908815335,0.9525552254942915
16500,-380174.60028446885,32534.543716201093,-347640.05656826776,150.58114199489702,0.9525552254942915
16600,-380089.17526094476,32422.237299409928,-347666.93796153483,150.06134898223686,0.9525552254942915
16700,-380042.8675067038,32271.221509248135,-347771.6459974557,149.3623955762759,0.9525552254942915
16800,-379869.2829905604,32232.91553340725,-347636.36745715316,149.18510224652567,0.9525552254942915
16900,-380098.98028958077,32452.93365942902,-347646.04663015174,150.20342237312508,0.9525552254942915
17000,-379641.0449271039,32117.35873237031,-347523.6861947336,148.65026532927226,0.9525552254942915
17100,-379823.7707331793,32273.388064326078,-347550.3826688532,149.37242314391838,0.9525552254942915
17200,-379767.3970685289,32331.11800775616,-347436.27906077274,149.63961732634897,0.9525552254942915
17300,-380023.3567852848,32533.451609038835,-347489.90517624596,150.57608734451964,0.9525552254942915
17400,-379958.77670540055,32367.58330838915,-347591.1933970114,149.80839137341724,0.9525552254942915
17500,-379922.67786383117,32355.292962679494,-347567.38490115164,149.75150739469555,0.9525552254942915
17600,-379865.3015959547,32400.662834563875,-347464.6387613908,149.96149488307427,0.9525552254942915
17700,-379951.4345015553,32444.494685231126,-347506.93981632416,150.16436387631413,0.9525552254942915
17800,-380003.36893063644,32258.932611758413,-347744.436318878,149.3055183004179,0.9525552254942915
17900,-379832.0397853651,32195.16583761378,-347636.87394775136,149.01038357359374,0.9525552254942915
18000,-380082.8024032512,32323.05640892667,-347759.7459943245,149.60230545350888,0.9525552254942915
18100,-380194.60597672267,32545.505907251674,-347649.100069471,150.63187881363228,0.9525552254942915
18200,-379619.392538751,32173.242201420377,-347446.15033733065,148.9089133884428,0.9525552254942915
18300,-379859.85644904757,32394.565936562314,-347465.29051248526,149.93327632646225,0.9525552254942915
18400,-379398.10007592477,32141.09809659663,-347257.0019793281,148.76013933293476,0.9525552254942915
18500,-380015.32897295477,32605.090131381643,-347410.2388415731,150.90765524967622,0.9525552254942915
18600,-379790.47037352854,32387.846484256705,-347402.62388927187,149.90217637280728,0.9525552254942915
18700,-379773.3944365331,32407.52562238183,-347365.86881415127,149.99325824314812,0.9525552254942915
18800,-379752.95107837114,32204.18435963709,-347548.76671873406,149.05212441856213,0.9525552254942915
18900,-379962.1026051366,32644.378118060355,-347317.7244870762,151.08949366586447,0.9525552254942915
19000,-379857.4275100366,32600.075718054548,-347257.3517919821,150.88444680723381,0.9525552254942915
19100,-379841.69412153447,32600.543720412184,-347241.1504011223,150.88661288431433,0.9525552254942915
19200,-379820.1859928719,32500.744537125167,-347319.4414557467,150.42470768224342,0.9525552254942915
19300,-380044.3927925606,32846.044091190444,-347198.3487013702,152.02287366960243,0.9525552254942915
19400,-379737.5044675409,32614.775047001836,-347122.72942053905,150.95248039512578,0.9525552254942915
19500,-379758.17590803606,32618.270304053323,-347139.90560398274,150.96865765591573,0.9525552254942915
19600,-379619.8535730359,32553.4328354554,-347066.4207375805,150.6685673841511,0.9525552254942915
19700,-379900.38841381157,32791.94448451244,-347108.44392929913,151.77248194362315,0.9525552254942915
