#"Step","Potential Energy (kJ/mole)","Kinetic Energy (kJ/mole)","Total Energy (kJ/mole)","Temperature (K)","Density (g/mL)"
50,-398274.9793737149,3553.82072234364,-394721.15865137125,16.448313751797127,0.9525552254942915
100,-395227.0018910677,6521.113766134324,-388705.8881249334,30.181974167173255,0.9525552254942915
150,-392307.69234441733,9228.324842822469,-383079.3675015949,42.711885116744604,0.9525552254942915
200,-389449.260500154,11856.721517973008,-377592.538982181,54.87701570570289,0.9525552254942915
250,-386730.8371550166,14254.836593189219,-372476.0005618274,65.97632325435661,0.9525552254942915
300,-384394.427794049,16681.149115184337,-367713.2786788647,77.20613835751445,0.9525552254942915
350,-381853.91727728257,18907.534984562415,-362946.38229272014,87.51062363496767,0.9525552254942915
400,-379717.29347137036,21355.606701340177,-358361.6867700302,98.84114783144616,0.9525552254942915
450,-377429.44944942417,23364.939076299524,-354064.5103731246,108.14103432464535,0.9525552254942915
500,-375435.5669414201,25347.46328468593,-350088.10365673417,117.31684333353876,0.9525552254942915
550,-373495.73937613936,27172.999758975988,-346322.7396171634,125.76605871057964,0.9525552254942915
600,-371680.6288973526,29133.05224027294,-342547.5766570797,134.837860779734,0.9525552254942915
650,-369685.0950624016,30666.515557234758,-339018.57950516685,141.93526037720883,0.9525552254942915
700,-368031.458568363,32236.943303062,-335794.515265301,149.20374416016662,0.9525552254942915
750,-366659.1551511907,34109.53922937976,-332549.61592181097,157.87076698795275,0.9525552254942915
800,-364878.0408014213,35340.57259476546,-329537.4682066558,163.56841597330768,0.9525552254942915
850,-363472.53152307356,36837.615911157336,-326634.9156119162,170.49725118810318,0.9525552254942915
900,-361758.15288148774,37672.84957931307,-324085.30330217467,174.36300202452406,0.9525552254942915
950,-360236.8649179642,38910.58290319351,-321326.28201477067,180.09166073942245,0.9525552254942915
1000,-358918.6476524831,40059.84034579038,-318858.8073066927,185.41082241760495,0.9525552254942915
1050,-357119.7524240748,40689.860004554066,-316429.89241952077,188.32677170902318,0.9525552254942915
1100,-356120.15254371846,42109.4484551379,-314010.70408858056,194.8971189656602,0.9525552254942915
1150,-355054.92803528765,43223.463565934566,-311831.4644693531,200.05316692030848,0.9525552254942915
1200,-353650.8815389634,43730.990091619955,-309919.89144734346,202.40217554624942,0.9525552254942915
1250,-352824.58945069415,44913.73340400134,-307910.8560466928,207.87632143311885,0.9525552254942915
1300,-351486.86705091083,45604.53627123794,-305882.3307796729,211.07359647558513,0.9525552254942915
1350,-350275.7800353118,46246.82845375757,-304028.95158155425,214.04634725954762,0.9525552254942915
1400,-349483.14381939033,46948.13723561354,-302535.0065837768,217.2922473153193,0.9525552254942915
1450,-348921.87508417806,48088.32044917258,-300833.5546350055,222.56941031716696,0.9525552254942915
1500,-348227.9216006738,49052.99944039063,-299174.9221602832,227.03427896334267,0.9525552254942915
1550,-347046.87976874644,49219.984428664786,-297826.89534008165,227.80714335171905,0.9525552254942915
1600,-346908.8273668452,50264.62515668501,-296644.2022101602,232.64210262368005,0.9525552254942915
1650,-345820.8890537182,50657.176913149684,-295163.71214056853,234.45896817729522,0.9525552254942915
1700,-345293.54924413795,51352.18657503673,-293941.3626691012,237.67571372311713,0.9525552254942915
1750,-344806.15322955186,51815.074050597614,-292991.07917895424,239.81811735702408,0.9525552254942915
1800,-344031.74358049734,52478.402750402456,-291553.3408300949,242.88823243243127,0.9525552254942915
1850,-343126.4174021431,52689.85439288453,-290436.5630092586,243.8669039048021,0.9525552254942915
1900,-342357.34630350256,53292.74839068897,-289064.5979128136,246.6573062378784,0.9525552254942915
1950,-341514.55280982563,53574.29916752975,-287940.2536422959,247.9604207943959,0.9525552254942915
2000,-340952.6248255023,53852.66638896905,-287099.9584365332,249.24880075336864,0.9525552254942915
2050,-340454.70738014625,54261.77116958308,-286192.9362105632,251.1422794386024,0.9525552254942915
2100,-339639.1385469469,54401.58693896653,-285237.5516079804,251.78939526743665,0.9525552254942915
2150,-338661.3712120489,54628.93835705239,-284032.4328549965,252.84165641079736,0.9525552254942915
2200,-337951.67130784364,55052.668125028955,-282899.0031828147,254.80282460530844,0.9525552254942915
2250,-337907.24481554376,55877.0656660145,-282030.17914952926,258.6184220903155,0.9525552254942915
2300,-336833.84278287133,55724.6713510768,-281109.17143179453,257.91308839401347,0.9525552254942915
2350,-336928.1014316012,56574.955615697196,-280353.145815904,261.8484986061158,0.9525552254942915
2400,-336565.20415740414,57084.00620753737,-279481.19794986676,264.2045611383315,0.9525552254942915
2450,-335822.6626608004,57194.942091589415,-278627.72056921094,264.71801085056615,0.9525552254942915
2500,-335604.3663073932,57728.08447861974,-277876.28182877344,267.1855785590671,0.9525552254942915
2550,-334543.41547774384,57464.62532209413,-277078.7901556497,265.96619829036877,0.9525552254942915
2600,-334321.0840985724,57620.50658515579,-276700.5775134166,266.687670790865,0.9525552254942915
2650,-333413.68968543364,57489.12095459446,-275924.5687308392,266.079572565661,0.9525552254942915
2700,-333582.647535183,58313.964146424405,-275268.68338875857,269.8972326772002,0.9525552254942915
2750,-332854.31551014865,58451.22073707514,-274403.0947730735,270.5325037400681,0.9525552254942915
2800,-332178.903401325,58716.252677764045,-273462.65072356095,271.75916339886595,0.9525552254942915
2850,-331458.9552095742,58853.919657193415,-272605.0355523808,272.3963338832069,0.9525552254942915
2900,-330735.5566305802,58566.25089585851,-272169.3057347217,271.06490317448305,0.9525552254942915
2950,-330530.72391987825,58904.904899805464,-271625.8190200728,272.6323112531181,0.9525552254942915
3000,-329989.8383640186,58990.592580794444,-270999.2457832241,273.02890353271994,0.9525552254942915
3050,-330009.48835537443,59399.79516587539,-270609.693189499,274.92283489091716,0.9525552254942915
3100,-329762.09013561765,59717.99599788425,-270044.0941377334,276.39557860251136,0.9525552254942915
3150,-329219.0183515842,59763.11260192329,-269455.9057496609,276.60439387954096,0.9525552254942915
3200,-328611.80742362,59661.53319558897,-268950.27422803105,276.1342491883349,0.9525552254942915
3250,-328580.2813906153,60069.58260664146,-268510.6987839738,278.02284325753743,0.9525552254942915
3300,-328219.9893905991,60278.22741785133,-267941.76197274774,278.98852374217404,0.9525552254942915
3350,-327837.23680201964,60392.225561436615,-267445.01124058303,279.51614665264447,0.9525552254942915
3400,-327828.6857623856,60884.706212646735,-266943.97954973887,281.795517757907,0.9525552254942915
3450,-327359.5979281799,60751.05073592812,-266608.5471922518,281.1769138981535,0.9525552254942915
3500,-326860.9751891126,60588.38963293773,-266272.58555617486,280.42406194915736,0.9525552254942915
3550,-327050.7376116384,61020.850159738446,-266029.88745189994,282.42563912083716,0.9525552254942915
3600,-326831.267977729,61238.80681364413,-265592.46116408485,283.43441804015424,0.9525552254942915
3650,-326229.97782900045,60863.846721199225,-265366.1311078012,281.6989728033812,0.9525552254942915
3700,-325921.27931589587,60998.367376687354,-264922.9119392085,282.3215810102766,0.9525552254942915
3750,-325461.1356605538,61244.91777608218,-264216.21788447164,283.46270169185186,0.9525552254942915
3800,-325000.35097542265,61296.63371981599,-263703.71725560667,283.70206099975275,0.9525552254942915
3850,-325154.18242423283,61714.48375185148,-263439.69867238135,285.6360157389175,0.9525552254942915
3900,-325248.12615316967,62030.809450856934,-263217.31670231273,287.10008068521194,0.9525552254942915
3950,-324550.8608138473,61648.12071267946,-262902.7401011678,285.32886459790427,0.9525552254942915
4000,-324706.55114109674,61780.73729750863,-262925.8138435881,285.9426601060028,0.9525552254942915
4050,-324271.79790581437,61537.9085054216,-262733.88940039277,284.8187643126372,0.9525552254942915
4100,-324543.83080205927,62214.365706972894,-262329.4650950864,287.94964264333726,0.9525552254942915
4150,-324019.5330750481,62359.7113301802,-261659.82174486792,288.6223525518404,0.9525552254942915
4200,-323662.99353000754,62230.814644364524,-261432.17888564302,288.0257740253735,0.9525552254942915
4250,-323526.8709086762,62424.83892599406,-261102.03198268212,288.9237856328935,0.9525552254942915
4300,-322980.7496654112,62193.32038620068,-260787.4292792105,287.8522376063042,0.9525552254942915
4350,-322268.51418143744,62088.638302891384,-260179.87587854604,287.3677326509368,0.9525552254942915
4400,-322794.0375208934,62891.993466319516,-259902.04405457387,291.08593872112874,0.9525552254942915
4450,-322660.93246273557,62835.577331234876,-259825.3551315007,290.8248252989739,0.9525552254942915
4500,-322504.04290109733,62798.827553324634,-259705.2153477727,290.65473459249114,0.9525552254942915
4550,-322115.159728291,62569.00011920091,-259546.15960909007,289.59101358893287,0.9525552254942915
4600,-323012.7048143358,63692.1832111883,-259320.5216031475,294.78949413736603,0.9525552254942915
4650,-322454.28383503156,63554.625738554285,-258899.65809647727,294.1528304884197,0.9525552254942915
4700,-321844.89144067327,63452.125649888156,-258392.7657907851,293.6784245603526,0.9525552254942915
4750,-321837.5158239282,63504.51088340371,-258333.00494052446,293.9208815732817,0.9525552254942915
4800,-321224.09264977137,63125.270262795035,-258098.82238697633,292.16562456890364,0.9525552254942915
4850,-320374.88306747423,62688.561163645005,-257686.32190382923,290.1443835322012,0.9525552254942915
4900,-320719.78297907347,63112.40550439106,-257607.3774746824,292.1060820091905,0.9525552254942915
4950,-320458.5773252235,63338.287434686674,-257120.2898905368,293.1515418538598,0.9525552254942915
5000,-320626.1687575844,63618.150475808754,-257008.01828177564,294.446844984647,0.9525552254942915
5050,-320323.40615934134,63594.330974880926,-256729.0751844604,294.3366000805614,0.9525552254942915
5100,-320086.3754451559,63362.70682733707,-256723.66861781882,293.26456326470833,0.9525552254942915
5150,-320447.51796822203,63755.918063261895,-256691.59990496014,295.08448111778404,0.9525552254942915
5200,-319906.66274553956,63150.905542144086,-256755.75720339548,292.28427352471533,0.9525552254942915
5250,-320481.2334145927,63553.68409593124,-256927.54931866145,294.14847224006786,0.9525552254942915
5300,-320063.4863346559,62930.93643241364,-257132.54990224226,291.266180262497,0.9525552254942915
5350,-320230.28655192116,63490.54218738119,-256739.74436453998,293.8562296077401,0.9525552254942915
5400,-319857.6131181852,63461.323131954385,-256396.2899862308,293.7209936944118,0.9525552254942915
5450,-320016.4406138691,64237.2957115022,-255779.1449023669,297.3124636779558,0.9525552254942915
5500,-319299.10438487725,63545.93927874783,-255753.16510612943,294.1126265424551,0.9525552254942915
5550,-319877.9635067121,63857.404882800765,-256020.55862391135,295.55419728521815,0.9525552254942915
5600,-319832.52546228655,63509.03758602531,-256323.48787626124,293.9418327215805,0.9525552254942915
5650,-320071.9410990174,63933.70895318844,-256138.23214582895,295.90735896340436,0.9525552254942915
5700,-319316.88382108,63400.09630458313,-255916.78751649684,293.4376147213821,0.9525552254942915
5750,-319622.6230470692,63893.31281344098,-255729.3102336282,295.7203916308233,0.9525552254942915
5800,-319529.69011373026,64110.36461794621,-255419.32549578405,296.7249825935721,0.9525552254942915
5850,-319261.41726904595,63842.31970247836,-255419.0975665676,295.48437784345924,0.9525552254942915
5900,-319095.4615439554,63516.465504224645,-255578.99603973073,293.976211700885,0.9525552254942915
5950,-318715.20469995076,63253.883327110205,-255461.32137284055,292.76089039678726,0.9525552254942915
6000,-319054.73038812773,63278.64043342741,-255776.08995470032,292.8754748635083,0.9525552254942915
6050,-319523.62242746213,63880.14102536929,-255643.48140209285,295.659428031418,0.9525552254942915
6100,-319223.8798761503,63433.462157268776,-255790.4177188815,293.59204344934784,0.9525552254942915
6150,-318893.8484913022,62833.99790479528,-256059.85058650695,290.81751516611797,0.9525552254942915
6200,-319093.8154601143,63191.13598750322,-255902.67947261105,292.4704739662517,0.9525552254942915
6250,-319274.66538369516,63334.41128082934,-255940.25410286582,293.13360167066634,0.9525552254942915
6300,-319440.7604668462,63414.92061243288,-256025.8398544133,293.5062267549416,0.9525552254942915
6350,-319633.66856684396,63766.94707393204,-255866.72149291192,295.1355272008725,0.9525552254942915
6400,-319362.60013839905,63688.27836416027,-255674.32177423878,294.77142115223603,0.9525552254942915
6450,-319753.12229488464,64164.75425404054,-255588.3680408441,296.9767166761895,0.9525552254942915
6500,-318834.7319560838,63530.77063271415,-255303.96132336964,294.04242079246234,0.9525552254942915
6550,-318841.4229290192,63658.54306102218,-255182.87986799702,294.6337958656128,0.9525552254942915
6600,-319196.07286732923,64074.53203304345,-255121.54083428578,296.5591369741482,0.9525552254942915
6650,-319332.8675059178,64477.150915269216,-254855.71659064858,298.42259667418625,0.9525552254942915
6700,-319091.35217109555,64423.48975173768,-254667.86241935787,298.1742342150155,0.9525552254942915
6750,-318844.54235930415,64311.16285248194,-254533.3795068222,297.6543464024118,0.9525552254942915
6800,-319101.39063515747,64657.001271510264,-254444.3893636472,299.2550064435441,0.9525552254942915
6850,-318543.966838073,64012.26166156458,-254531.7051765084,296.2709281173858,0.9525552254942915
6900,-318751.25119850785,64556.03088157275,-254195.2203169351,298.7876804912551,0.9525552254942915
6950,-318315.5242121243,64115.04061248829,-254200.483599636,296.74662471661065,0.9525552254942915
7000,-318138.746369882,64008.5451905228,-254130.20117935922,296.253727001595,0.9525552254942915
7050,-318797.39952528896,64636.5937142371,-254160.80581105186,299.16055319697864,0.9525552254942915
7100,-318174.76228870684,64160.9669220791,-254013.79536662775,296.9591875915082,0.9525552254942915
7150,-318128.1928231553,64118.07730057498,-254010.11552258034,296.7606795613309,0.9525552254942915
7200,-318342.1893279948,64336.508602934075,-254005.68072506075,297.77165531816274,0.9525552254942915
7250,-317777.6054594391,63862.28114178113,-253915.32431765797,295.57676630147154,0.9525552254942915
7300,-318242.54694535816,64351.39262222592,-253891.15432313224,297.84054371696715,0.9525552254942915
7350,-317749.7090973151,63971.19074354277,-253778.51835377232,296.08083767713094,0.9525552254942915
7400,-318181.98038243735,64433.16632291349,-253748.81405952387,298.2190207394849,0.9525552254942915
7450,-317809.35081921704,64218.104207653465,-253591.24661156358,297.22363874801823,0.9525552254942915
7500,-318155.083621318,64364.53633434535,-253790.54728697264,297.90137737113673,0.9525552254942915
7550,-317650.4594166544,63827.66701052827,-253822.79240612616,295.4165601077506,0.9525552254942915
7600,-318228.0707642534,64455.93056905543,-253772.14019519795,298.3243815587609,0.9525552254942915
7650,-317705.32094494114,64027.22538519924,-253678.0955597419,296.3401854155074,0.9525552254942915
7700,-317568.971127423,63971.4871936274,-253597.4839337956,296.0822097508467,0.9525552254942915
7750,-318130.1914771092,64568.552871627035,-253561.63860548218,298.84563660027175,0.9525552254942915
7800,-318606.51692953566,65134.985810903934,-253471.5311186317,301.46728452021375,0.9525552254942915
7850,-317319.2538111792,64095.5610186797,-253223.6927924995,296.6564664065117,0.9525552254942915
7900,-318097.22364285076,64624.95312747802,-253472.27051537274,299.10667652783087,0.9525552254942915
7950,-318179.1055432749,64579.01951685615,-253600.08602641875,298.8940798612317,0.9525552254942915
8000,-318849.30412307056,65020.60494129243,-253828.69918177812,300.93789022107404,0.9525552254942915
8050,-317858.46275034593,64187.71198004251,-253670.75077030342,297.0829729873011,0.9525552254942915
8100,-318562.27455406496,65001.41755540052,-253560.85699866444,300.8490843504676,0.9525552254942915
8150,-318553.7712156982,65080.5431565785,-253473.22805911972,301.2153050508513,0.9525552254942915
8200,-318221.0684132208,64676.53704736661,-253544.5313658542,299.345424783628,0.9525552254942915
8250,-317856.01363827894,64529.990536231315,-253326.02310204762,298.66715674966963,0.9525552254942915
8300,-318209.2490344946,64839.608442115656,-253369.64059237897,300.10017570505505,0.9525552254942915
8350,-318148.64492546255,64691.861610485066,-253456.78331497748,299.4163521719165,0.9525552254942915
8400,-317903.9251914737,64583.52634052106,-253320.39885095262,298.9149390028306,0.9525552254942915
8450,-317941.50645084074,64441.95739741437,-253499.54905342637,298.2597088785058,0.9525552254942915
8500,-317234.6024120073,63652.46126429201,-253582.14114771527,294.6056472029176,0.9525552254942915
8550,-318434.74716665084,64661.55967632914,-253773.1874903217,299.27610432059714,0.9525552254942915
8600,-318362.6424980075,64612.28858546284,-253750.35391254467,299.04806063894296,0.9525552254942915
8650,-318018.9518097802,63983.299051147886,-254035.65275863232,296.13687912042604,0.9525552254942915
8700,-318222.9995559179,63797.73609941406,-254425.26345650386,295.27802947963306,0.9525552254942915
8750,-318686.886117904,64075.526035004325,-254611.36008289966,296.5637375596588,0.9525552254942915
8800,-318820.42498174077,64115.165617758175,-254705.2593639826,296.7472032843158,0.9525552254942915
8850,-318793.79023500765,64024.025472566485,-254769.76476244116,296.32537511102834,0.9525552254942915
8900,-318986.18185531395,64199.234889211366,-254786.94696610258,297.13630500378434,0.9525552254942915
8950,-318938.6709003211,64188.618415224075,-254750.05248509703,297.08716828341386,0.9525552254942915
9000,-318867.26732112514,64405.967987258686,-254461.29933386645,298.0931374174692,0.9525552254942915
9050,-318976.60924984375,64482.87565792969,-254493.73359191406,298.4490927669226,0.9525552254942915
9100,-318855.01004784787,64529.29888569494,-254325.71116215293,298.6639555513206,0.9525552254942915
9150,-318562.54000177095,64533.38916218106,-254029.15083958989,298.68288676823664,0.9525552254942915
9200,-319128.3835092173,65165.56374975317,-253962.81975946412,301.6088098168933,0.9525552254942915
9250,-318698.12557940045,64882.40295008046,-253815.72262932,300.2982435168142,0.9525552254942915
9300,-318057.59999728994,64572.55344491918,-253485.04655237077,298.8641526397226,0.9525552254942915
9350,-317772.9628649228,64433.960525728995,-253339.00233919383,298.2226965853175,0.9525552254942915
9400,-317987.74267161125,64670.510174357565,-253317.2324972537,299.317530326946,0.9525552254942915
9450,-318602.9615926794,65055.812049954664,-253547.1495427247,301.10084091972044,0.9525552254942915
9500,-318292.59142273525,64583.81660116499,-253708.77482157026,298.91628242967005,0.9525552254942915
9550,-318281.5059624263,65005.95419885047,-253275.55176357584,300.87008150836465,0.9525552254942915
9600,-318263.0350309708,64961.3283353782,-253301.7066955926,300.66353754872654,0.9525552254942915
9650,-317938.4308122485,64500.53635466751,-253437.894457581,298.5308325911047,0.9525552254942915
9700,-317532.32612526,64360.50199672568,-253171.8241285343,297.88270505867825,0.9525552254942915
9750,-317532.79510680353,64168.63887972955,-253364.15622707398,296.9946960699556,0.9525552254942915
9800,-317343.87402851926,63911.925577873015,-253431.94845064625,295.8065379541991,0.9525552254942915
9850,-317725.62663677195,64468.82283060669,-253256.80380616526,298.38405141256976,0.9525552254942915
9900,-317721.13397877524,64424.3179587326,-253296.81602004264,298.17806744397336,0.9525552254942915
9950,-318028.811004939,64792.256276184635,-253236.5547287544,299.8810134729357,0.9525552254942915
