#"Step","Potential Energy (kJ/mole)","Kinetic Energy (kJ/mole)","Total Energy (kJ/mole)","Temperature (K)","Density (g/mL)"
200,-385762.79954083543,11874.039674299362,-373888.7598665361,55.00797408159726,0.9580024802665849
400,-375858.2379363207,21219.32976538583,-354638.9081709349,98.30119940474957,0.9580024802665849
600,-367604.4641424576,28918.01956049539,-338686.4445819622,133.96634288816415,0.9580024802665849
800,-360838.1285283398,35442.025409791386,-325396.1031185484,164.18961605466876,0.9580024802665849
1000,-355126.4745389968,40827.95120452269,-314298.5233344741,189.14059100915216,0.9580024802665849
1200,-349955.50277461484,44148.77319665969,-305806.72957795515,204.52471428005987,0.9580024802665849
1400,-345566.53271870967,47647.09779790405,-297919.4349208056,220.73114059096224,0.9580024802665849
1600,-342284.18174016755,50192.82464076998,-292091.3570993976,232.5245386283878,0.9580024802665849
1800,-338868.443991323,52292.75018357072,-286575.6938077523,242.25270637922392,0.9580024802665849
2000,-335969.960366006,53838.934480804164,-282131.0258852019,249.41559854402618,0.9580024802665849
2200,-333791.2473316649,55943.38456686551,-277847.8627647994,259.1647268074795,0.9580024802665849
2400,-330711.42496294156,56235.56483043579,-274475.86013250577,260.5182884264806,0.9580024802665849
2600,-328683.39175847126,57525.86276137072,-271157.52899710054,266.49575499129526,0.9580024802665849
2800,-326616.6018657973,57879.355629651924,-268737.2462361454,268.1333549210419,0.9580024802665849
3000,-325657.14353031944,59395.946451205644,-266261.1970791138,275.1591516079928,0.9580024802665849
3200,-324675.5371264089,60427.688280051574,-264247.8488463573,279.9388246878206,0.9580024802665849
3400,-323267.849658465,60353.773025842325,-262914.0766326227,279.5964030268439,0.9580024802665849
3600,-321964.5871251696,60357.64889117482,-261606.93823399476,279.61435845781784,0.9580024802665849
3800,-321259.471408288,60808.656621950795,-260450.8147863372,281.7037081859329,0.9580024802665849
4000,-320380.5073894216,61864.45775615028,-258516.0496332713,286.5948390073223,0.9580024802665849
4200,-319361.36376621854,62075.6414990878,-257285.72226713074,287.57317411286397,0.9580024802665849
4400,-318729.1273897132,62019.133739293204,-256709.99365042,287.31139484721797,0.9580024802665849
4600,-318183.94007701706,62624.89195075637,-255559.0481262607,290.1176455344211,0.9580024802665849
4800,-317739.2155392319,63071.5845154007,-254667.6310238312,292.18700471565927,0.9580024802665849
5000,-317533.4925218439,63584.91443470295,-253948.57808714092,294.56506977783056,0.9580024802665849
5200,-316977.491464098,63262.55907732551,-253714.93238677247,293.07171826224965,0.9580024802665849
5400,-316774.0369106354,63580.55061062751,-253193.4863000079,294.5448538169425,0.9580024802665849
5600,-316331.593242283,63638.781025805394,-252692.81221647759,294.8146134991338,0.9580024802665849
5800,-316285.1399836121,63839.52870689146,-252445.61127672065,295.7446022427309,0.9580024802665849
6000,-315480.3912274381,63697.28853037245,-251783.10269706568,295.08565683258075,0.9580024802665849
6200,-315415.5042709997,63955.9014104876,-251459.6028605121,296.2837133488759,0.9580024802665849
6400,-315556.80838094745,64516.432000547415,-251040.37638040003,298.8804414225314,0.9580024802665849
6600,-315108.58056089,64665.52075434406,-250443.05980654596,299.5711137235895,0.9580024802665849
6800,-314659.2464289451,64406.87700681377,-250252.36942213133,298.37291421013265,0.9580024802665849
7000,-314659.51278925594,64157.683005516184,-250501.82978373975,297.21849182814105,0.9580024802665849
7200,-314509.4717993019,64605.292443437385,-249904.17935586453,299.29209853952347,0.9580024802665849
7400,-314355.2478461405,64900.616859532776,-249454.63098660775,300.6602258383904,0.9580024802665849
7600,-314099.01763831545,64174.03514203522,-249924.98249628022,297.2942451460085,0.9580024802665849
7800,-314127.6920349756,64100.66863790888,-250027.02339706675,296.9543656384325,0.9580024802665849
8000,-314125.583192904,64546.06197155453,-249579.52122134948,299.0177059695521,0.9580024802665849
8200,-314235.22941409703,64721.28125886405,-249513.948155233,299.8294312357039,0.9580024802665849
8400,-314027.87339731585,64845.67425529787,-249182.19914201798,300.40569735165553,0.9580024802665849
8600,-313874.57869035844,64874.63391952845,-248999.94477082998,300.53985661868705,0.9580024802665849
8800,-313284.4052482797,64743.93041810556,-248540.47483017412,299.9343562990102,0.9580024802665849
9000,-313747.8835773086,65142.598192388716,-248605.2853849199,301.78123463161353,0.9580024802665849
9200,-314287.9564272119,65180.748492105224,-249107.20793510665,301.95797066716455,0.9580024802665849
9400,-313790.81862980034,64523.66197637271,-249267.15665342764,298.9139351899196,0.9580024802665849
9600,-314277.03020860907,64568.59173844056,-249708.4384701685,299.12207793283716,0.9580024802665849
9800,-313780.00308468845,64199.01961489662,-249580.98346979183,297.4099888417768,0.9580024802665849
10000,-314084.54614592064,64408.35415039072,-249676.19199552992,298.3797572625246,0.9580024802665849
10200,-313700.3269173093,64325.70538756237,-249374.62152974695,297.99687653041974,0.9580024802665849
10400,-314231.4809601465,64802.119956487266,-249429.36100365926,300.20392661433,0.9580024802665849
10600,-313992.4231766993,64384.306698872126,-249608.1164778272,298.2683544353363,0.9580024802665849
10800,-314138.34010481834,64488.473569608526,-249649.86653520982,298.7509204939651,0.9580024802665849
11000,-313913.7283114074,65206.553643408464,-248707.17466799892,302.07751625847095,0.9580024802665849
11200,-313583.0424930686,64892.848764697905,-248690.1937283707,300.62423916737856,0.9580024802665849
11400,-313993.83188674133,65774.48323811521,-248219.34864862612,304.7085211466742,0.9580024802665849
11600,-313443.4409252489,64599.79908189477,-248843.64184335413,299.26664985502805,0.9580024802665849
11800,-314182.25936030876,65359.059054252924,-248823.20030605583,302.7840166506831,0.9580024802665849
12000,-314516.2275980972,65629.87400434061,-248886.35359375656,304.03860078244884,0.9580024802665849
12200,-314037.8342709821,65168.76089416095,-248869.07337682112,301.9024366201926,0.9580024802665849
12400,-314122.4123218572,64391.31772262315,-249731.09459923403,298.30083387985223,0.9580024802665849
12600,-314301.99952963274,64708.59845681209,-249593.40107282065,299.770676568742,0.9580024802665849
12800,-314190.6413637651,64454.773056132486,-249735.86830763263,298.5947986497844,0.9580024802665849
13000,-313987.8519382281,64290.03087647399,-249697.82106175413,297.83160989537805,0.9580024802665849
13200,-314614.776002259,64743.3418514427,-249871.4341508163,299.9316296903223,0.9580024802665849
13400,-314567.9589506546,64553.7917005989,-250014.1672500557,299.0535149062403,0.9580024802665849
13600,-314414.65016239416,65025.17608671903,-249389.47407567513,301.237262039096,0.9580024802665849
13800,-314429.6747360034,64883.16403253807,-249546.51070346532,300.57937343421213,0.9580024802665849
14000,-314721.46649985574,64878.97981770849,-249842.48668214725,300.5599895356224,0.9580024802665849
14200,-315082.6762151597,64752.297634081915,-250330.3785810778,299.9731184736523,0.9580024802665849
14400,-314923.0739178555,64323.8371363373,-250599.2367815182,297.98822162292527,0.9580024802665849
14600,-314948.9911170257,64770.31946160598,-250178.67165541975,300.05660684395747,0.9580024802665849
14800,-314724.9742272077,64719.854757027,-250005.1194701807,299.82282278750665,0.9580024802665849
15000,-314234.51182529423,64575.565104023626,-249658.94672127062,299.1543829211795,0.9580024802665849
15200,-314812.56136285793,64619.2958464204,-250193.26551643753,299.35697105548877,0.9580024802665849
15400,-314884.0284758187,64771.921814269386,-250112.1066615493,300.0640299431046,0.9580024802665849
15600,-314593.5106641287,65071.0760902201,-249522.4345739086,301.44989954681773,0.9580024802665849
15800,-314046.90941766184,64467.10607655156,-249579.8033411103,298.65193290957876,0.9580024802665849
16000,-314673.73264907394,64910.849339127424,-249762.8833099465,300.7076290800648,0.9580024802665849
16200,-314118.54436012544,64343.541757034545,-249775.0026030909,298.07950574310115,0.9580024802665849
16400,-314907.1726119346,65375.58868214628,-249531.58392978832,302.860592219544,0.9580024802665849
16600,-313729.7717951676,64472.72152526441,-249257.05026990318,298.67794717816184,0.9580024802665849
16800,-314830.0238775788,65863.42173160554,-248966.60214597324,305.1205398428355,0.9580024802665849
17000,-313879.2113856701,64901.31784088875,-248977.89354478137,300.6634732222057,0.9580024802665849
17200,-313882.1521512279,65224.263657922274,-248657.88849330565,302.15956011600235,0.9580024802665849
17400,-314011.2795577301,64864.575010357774,-249146.7045473723,300.4932574637131,0.9580024802665849
17600,-314122.71526846755,64689.205489236134,-249433.50977923142,299.6808362206343,0.9580024802665849
17800,-314375.4287219355,64562.92405850743,-249812.50466342806,299.0958216965927,0.9580024802665849
18000,-314205.1707522189,64870.87696213799,-249334.29379008093,300.5224520436285,0.9580024802665849
18200,-314441.52958939504,65162.251688963035,-249279.277900432,301.87228191289495,0.9580024802665849
18400,-314281.018084568,65156.24010751583,-249124.77797705214,301.84443250986885,0.9580024802665849
18600,-314469.2278884491,64499.90481697291,-249969.3230714762,298.80387717728337,0.9580024802665849
18800,-314653.8264098391,65306.66068256274,-249347.16572727636,302.54127463946264,0.9580024802665849
19000,-314016.2896082811,64921.18724580703,-249095.10236247408,300.7555207258979,0.9580024802665849
19200,-314187.8383378042,64939.564693329856,-249248.27364447434,300.84065655033095,0.9580024802665849
19400,-314227.2064661244,64629.02366653501,-249598.18279958938,299.4020363989955,0.9580024802665849
19600,-314586.3462493634,64557.751966355834,-250028.59428300755,299.07186133273785,0.9580024802665849
19800,-313765.8998240165,64392.41858836537,-249373.48123565112,298.30593377810726,0.9580024802665849
20000,-314963.40171586256,64970.743897781475,-249992.6578180811,300.9850981150725,0.9580024802665849
20200,-315046.1371158762,64919.35147644175,-250126.78563943444,300.747016294682,0.9580024802665849
20400,-314285.74090754706,64863.66686077253,-249422.07404677453,300.4890503471616,0.9580024802665849
20600,-314023.6404239675,64045.43245931738,-249978.20796465012,296.6984771317683,0.9580024802665849
20800,-314635.69553549495,64931.36570429255,-249704.3298312024,300.802673708027,0.9580024802665849
21000,-314601.60465899576,64696.68650986871,-249904.91814912704,299.71549298449463,0.9580024802665849
21200,-314628.7968117101,64720.66286769981,-249908.1339440103,299.82656646128277,0.9580024802665849
21400,-314092.54142211657,64225.81626431781,-249866.72515779876,297.5341276721383,0.9580024802665849
21600,-313650.747116006,64259.17765317694,-249391.56946282904,297.6886784791111,0.9580024802665849
21800,-314471.02807476465,64848.21652083445,-249622.8115539302,300.4174747147586,0.9580024802665849
22000,-313803.29096975015,64227.81327964208,-249575.47769010806,297.54337909542915,0.9580024802665849
22200,-314438.637372517,65093.98544563807,-249344.65192687896,301.5560300014587,0.9580024802665849
22400,-314206.0144385779,64461.861017740215,-249744.1534208377,298.6276345185455,0.9580024802665849
22600,-314304.50783771975,64617.632231767755,-249686.875605952,299.34926415251346,0.9580024802665849
22800,-313821.79425216,64594.2036134621,-249227.5906386979,299.2407281475922,0.9580024802665849
23000,-314624.33764272835,65205.352386836894,-249418.98525589146,302.0719512871413,0.9580024802665849
23200,-314625.61323608365,65412.00005140947,-249213.61318467418,303.029272442252,0.9580024802665849
23400,-314406.00197783206,65390.94543996267,-249015.0565378694,302.9317343210623,0.9580024802665849
23600,-313994.0245710416,64859.87044574501,-249134.15412529657,300.4714629796636,0.9580024802665849
23800,-313906.9034056859,64411.971092996886,-249494.93231268902,298.3965132015809,0.9580024802665849
24000,-314240.8529138481,65003.77246899402,-249237.0804448541,301.1381071026662,0.9580024802665849
24200,-314569.9508098634,65171.69680992677,-249398.25399993663,301.9160376172232,0.9580024802665849
24400,-313828.92106989305,64822.11828063498,-249006.80278925807,300.29657135247874,0.9580024802665849
24600,-313988.6995998686,65228.436447882326,-248760.2631519863,302.1788910874549,0.9580024802665849
24800,-313687.5191575987,65030.15872733388,-248657.36043026485,301.26034474500887,0.9580024802665849
25000,-313145.7051710626,64220.689974462264,-248925.01519660035,297.51037949314923,0.9580024802665849
25200,-313683.70032459404,64555.6627960091,-249128.03752858494,299.0621829897782,0.9580024802665849
25400,-314051.1207666788,64691.74909180228,-249359.37167487654,299.69261977769406,0.9580024802665849
25600,-313806.6727606291,64594.78814305979,-249211.8846175693,299.2434360540707,0.9580024802665849
25800,-313519.55258196685,64399.24132110254,-249120.3112608643,298.33754094094877,0.9580024802665849
26000,-313386.7240602514,64620.87844496366,-248765.84561528772,299.36430264120327,0.9580024802665849
26200,-313690.73257345706,64273.54621172871,-249417.18636172835,297.75524262392497,0.9580024802665849
26400,-314137.2278153626,64962.36953210436,-249174.85828325828,300.9463028185473,0.9580024802665849
26600,-313935.27160859015,64382.240816732054,-249553.0307918581,298.25878397790694,0.9580024802665849
26800,-314353.0350489868,65164.94617459132,-249188.08887439547,301.8847644546137,0.9580024802665849
27000,-314325.0756088728,64906.66812304605,-249418.40748582676,300.68825907355125,0.9580024802665849
27200,-313702.85817069095,64107.16554207634,-249595.6926286146,296.9844633596678,0.9580024802665849
27400,-313815.5157744242,64901.30146020558,-248914.2143142186,300.6633973366419,0.9580024802665849
27600,-314170.300762224,65600.69705989433,-248569.60370232968,303.9034349376391,0.9580024802665849
27800,-314481.63512898516,65497.4940016109,-248984.14112737426,303.4253338607593,0.9580024802665849
28000,-313735.86641234346,64580.287819228484,-249155.57859311497,299.1762614901172,0.9580024802665849
28200,-314468.10403473023,65109.63622111833,-249358.4678136119,301.62853417658266,0.9580024802665849
28400,-313761.2409452619,64579.658466570545,-249181.58247869136,299.17334593520536,0.9580024802665849
28600,-313764.663645898,64519.27176591591,-249245.39187998208,298.89359699081933,0.9580024802665849
28800,-313868.98751663975,64554.01765049063,-249314.96986614913,299.05456164737717,0.9580024802665849
29000,-314595.1967395907,65612.46477887378,-248982.73196071695,303.9579503678024,0.9580024802665849
29200,-313635.8171084216,65464.84983982192,-248170.96726859966,303.27410569790493,0.9580024802665849
29400,-313173.6178328572,65136.61536525519,-248037.002467602,301.7535184365423,0.9580024802665849
29600,-313889.78515572567,65521.92390162646,-248367.8612540992,303.5385084284492,0.9580024802665849
29800,-314146.464690675,64856.82111662085,-249289.64357405418,300.4573365810639,0.9580024802665849
30000,-314435.4602564797,65146.12591235002,-249289.33434412966,301.79757723560687,0.9580024802665849
