#"Step","Potential Energy (kJ/mole)","Kinetic Energy (kJ/mole)","Total Energy (kJ/mole)","Temperature (K)","Density (g/mL)"
100,-389444.8073901632,12958.130392016807,-376486.6769981464,59.97471762842082,0.9525552254942915
200,-377470.85874619894,23473.826216064277,-353997.03253013466,108.64500173839978,0.9525552254942915
300,-366728.7762382538,33336.72385864971,-333392.0523796041,154.29390966083454,0.9525552254942915
400,-356649.0864468687,41726.27351555799,-314922.81293131073,193.12365256978643,0.9525552254942915
500,-346946.52355398843,48818.040385147964,-298128.48316884047,225.94680703906715,0.9525552254942915
600,-338536.11074437806,55849.00802529245,-282687.10271908564,258.48856160668726,0.9525552254942915
700,-329939.5828284756,61612.769750762425,-268326.8130777132,285.16524809654743,0.9525552254942915
800,-322006.725058245,66449.56816420238,-255557.15689404262,307.55162717252665,0.9525552254942915
900,-314247.7915308424,71179.01384046406,-243068.77769037837,329.4411405816137,0.9525552254942915
1000,-307216.9973666207,75362.72909254546,-231854.26827407524,348.80482448433804,0.9525552254942915
1100,-300986.75646191696,79658.24133932212,-221328.51512259484,368.68594361774086,0.9525552254942915
1200,-294449.35179382237,82934.76157230877,-211514.5902215136,383.85081461627976,0.9525552254942915
1300,-288341.0322963097,86056.28560773516,-202284.74668857455,398.29830950415067,0.9525552254942915
1400,-283681.6873174519,89903.50714633148,-193778.18017112045,416.10458390106857,0.9525552254942915
1500,-278854.8301183977,92418.84434694378,-186435.98577145394,427.7464360651681,0.9525552254942915
1600,-274408.1549850651,94648.59279237967,-179759.56219268544,438.06648450979674,0.9525552254942915
1700,-271369.1087710266,97565.20513260365,-173803.90363842295,451.5655770674906,0.9525552254942915
1800,-268146.75867180387,100662.66572340351,-167484.09294840036,465.9016979953083,0.9525552254942915
1900,-265334.32147985185,103276.08347216975,-162058.23800768208,477.9975009225517,0.9525552254942915
2000,-262264.9560487927,105062.59805109794,-157202.35799769475,486.26610944622314,0.9525552254942915
2100,-259267.17176077003,107241.88100689673,-152025.2907538733,496.3525861178103,0.9525552254942915
2200,-257215.7216483825,109309.04854358826,-147906.67310479423,505.9201537802018,0.9525552254942915
2300,-255756.6917592869,111450.05683841463,-144306.63492087228,515.8294820581011,0.9525552254942915
2400,-253218.04081296036,112316.15444717591,-140901.88636578445,519.8380819064334,0.9525552254942915
2500,-250947.96355740586,113531.29394509131,-137416.66961231455,525.4621685656875,0.9525552254942915
2600,-249836.1745669567,116128.22977323201,-133707.9447937247,537.481687453059,0.9525552254942915
2700,-246797.6945018717,116262.96057930519,-130534.73392256652,538.1052683096821,0.9525552254942915
2800,-246828.43368249247,119400.12211643602,-127428.31156605645,552.625138974055,0.9525552254942915
2900,-244769.0932446015,119267.82916002342,-125501.26408457808,552.0128413304102,0.9525552254942915
3000,-243631.83933082828,119739.06877813488,-123892.7705526934,554.1939015741758,0.9525552254942915
3100,-243656.08311359957,121616.14893548563,-122039.93417811394,562.8816789770317,0.9525552254942915
3200,-242842.11686096946,122077.77676667226,-120764.3400942972,565.0182525402902,0.9525552254942915
3300,-241466.64066294068,122790.32800461748,-118676.31265832321,568.3161865785117,0.9525552254942915
3400,-239940.20004940266,122182.48263229756,-117757.7174171051,565.502867568457,0.9525552254942915
3500,-240860.7583734044,124044.4250011777,-116816.33337222668,574.1205820408145,0.9525552254942915
3600,-240712.58765194053,124873.07473455742,-115839.51291738311,577.9558601456662,0.9525552254942915
3700,-238904.8162751547,124285.76865765324,-114619.04761750146,575.2376041119497,0.9525552254942915
3800,-238191.1564129279,124651.35730936774,-113539.79910356016,576.9296750736867,0.9525552254942915
3900,-237639.17106350372,124742.24785659835,-112896.92320690537,577.350348021121,0.9525552254942915
4000,-238319.63293473097,125810.06397905694,-112509.56895567403,582.2925710491423,0.9525552254942915
4100,-237859.69877130399,125666.98864242499,-112192.710128879,581.6303688135962,0.9525552254942915
4200,-237285.00155889848,125657.03662996367,-111627.96492893482,581.5843074514131,0.9525552254942915
4300,-237571.20408533,126618.96461496735,-110952.23947036266,586.0364434875664,0.9525552254942915
4400,-236700.96167495893,126915.326931332,-109785.63474362693,587.4081109814068,0.9525552254942915
4500,-236209.18808899308,126867.9364549435,-109341.25163404958,587.1887714352152,0.9525552254942915
4600,-236699.73664132738,127880.17834096123,-108819.55830036616,591.8737776397348,0.9525552254942915
4700,-235192.53752093995,127731.48647065953,-107461.05105028042,591.1855801401572,0.9525552254942915
4800,-235970.34556518262,128739.17324122181,-107231.17232396081,595.8495036919377,0.9525552254942915
4900,-235634.72901402833,128481.89004948549,-107152.83896454284,594.6587079283427,0.9525552254942915
5000,-236073.60035933787,129345.2333479207,-106728.36701141717,598.6545598740787,0.9525552254942915
5100,-235813.34626403125,128921.11047803797,-106892.23578599328,596.6915722677305,0.9525552254942915
5200,-235144.10841895128,127612.11573132254,-107531.99268762874,590.6330909948681,0.9525552254942915
5300,-235428.6073504989,128736.26906806714,-106692.33828243177,595.8360621722411,0.9525552254942915
5400,-235538.5455078245,129311.19029988674,-106227.35520793777,598.4969968513833,0.9525552254942915
5500,-235009.03496452747,129078.33616039448,-105930.69880413299,597.4192672065835,0.9525552254942915
5600,-235257.32640410075,129462.03784329817,-105795.28856080258,599.1951715530837,0.9525552254942915
5700,-235579.11570014292,128715.86299495341,-106863.25270518952,595.7416157948797,0.9525552254942915
5800,-236622.82128090644,129481.73701179354,-107141.08426911291,599.2863461309188,0.9525552254942915
5900,-234946.17634644965,127925.64235066343,-107020.53399578622,592.0842008305544,0.9525552254942915
6000,-235263.02591036493,128493.20946970116,-106769.81644066377,594.7110981274388,0.9525552254942915
6100,-234976.73322495585,129479.07557436265,-105497.6576505932,599.2740280762632,0.9525552254942915
6200,-235003.10651534284,129672.38252770365,-105330.72398763918,600.1687196398996,0.9525552254942915
6300,-234729.11105258064,128810.44573040493,-105918.66532217572,596.1793774687956,0.9525552254942915
6400,-235226.36671278486,129341.58667436684,-105884.78003841802,598.6376818052478,0.9525552254942915
6500,-234196.24579560803,129357.62940102583,-104838.6163945822,598.7119331032557,0.9525552254942915
6600,-233678.35415584175,128344.79958220641,-105333.55457363534,594.0242057420029,0.9525552254942915
6700,-234589.41308397474,129874.65631694585,-104714.75676702888,601.1049128272211,0.9525552254942915
6800,-234369.27724146517,130534.74799258955,-103834.52924887562,604.1600458331362,0.9525552254942915
6900,-233802.26653493615,129982.86092860135,-103819.4056063348,601.6057212643805,0.9525552254942915
7000,-234712.05240770662,129949.88728660508,-104762.16512110154,601.4531078233916,0.9525552254942915
7100,-233365.82028673077,128852.0491945974,-104513.77109213336,596.371932717263,0.9525552254942915
7200,-233152.59843880543,128792.80348838912,-104359.79495041631,596.0977230594617,0.9525552254942915
7300,-234192.79990765685,129718.42036721134,-104474.37954044552,600.381798713899,0.9525552254942915
7400,-233875.86390635604,130021.83793357917,-103854.02597277687,601.7861203494973,0.9525552254942915
7500,-233216.4390616552,128710.34566298872,-104506.09339866647,595.7160796707142,0.9525552254942915
7600,-234193.08710296312,129218.89491143986,-104974.19219152327,598.0698218120027,0.9525552254942915
7700,-234840.40008380124,129762.53091069323,-105077.86917310802,600.585957594056,0.9525552254942915
7800,-235194.99232711876,129630.57726149377,-105564.41506562498,599.9752303817684,0.9525552254942915
7900,-234318.7129154713,128184.58516117651,-106134.12775429478,593.2826778849295,0.9525552254942915
8000,-233843.29452889832,127897.82415519748,-105945.47037370084,591.9554485825427,0.9525552254942915
8100,-235138.45481236326,129144.61700610956,-105993.8378062537,597.7260379277968,0.9525552254942915
8200,-234527.136116697,128894.93218830973,-105632.20392838726,596.5704100717232,0.9525552254942915
8300,-234502.3228631881,129036.929944842,-105465.3929183461,597.2276248931714,0.9525552254942915
8400,-234968.73588889604,129784.92639522487,-105183.80949367117,600.6896116568184,0.9525552254942915
8500,-234238.60765508795,129125.58205535501,-105113.02559973294,597.637937579827,0.9525552254942915
8600,-235079.40811235318,129658.46975903888,-105420.9383533143,600.1043265255493,0.9525552254942915
8700,-234973.11784285074,128843.62534455524,-106129.4924982955,596.3329442202855,0.9525552254942915
8800,-236359.15158906067,130097.09701504034,-106262.05457402032,602.1344454568284,0.9525552254942915
8900,-235504.28849752108,128864.46157041186,-106639.82692710921,596.4293814935949,0.9525552254942915
9000,-235414.69745831797,129141.69472112134,-106273.00273719663,597.7125125802585,0.9525552254942915
9100,-233942.8777031959,127817.84792684554,-106125.02977635036,591.5852908848436,0.9525552254942915
9200,-234238.57846747572,128335.19879260007,-105903.37967487564,593.9797699608963,0.9525552254942915
9300,-234503.97629454406,128430.95654832572,-106073.01974621834,594.4229700358019,0.9525552254942915
9400,-234748.73342295596,128813.73903038865,-105934.99439256731,596.194620002295,0.9525552254942915
9500,-233673.2022759146,128283.91434728715,-105389.28792862745,593.7424077772075,0.9525552254942915
9600,-233929.56477955217,128194.55849788984,-105735.00628166232,593.3288379431401,0.9525552254942915
9700,-234696.4774063402,129620.18366241892,-105076.29374392127,599.9271252037219,0.9525552254942915
9800,-234149.67812773818,129148.06399637274,-105001.61413136544,597.7419917931653,0.9525552254942915
9900,-235059.1645490718,130308.14695156645,-104751.01759750536,603.1112576948382,0.9525552254942915
10000,-234125.7249482856,129684.70399804623,-104441.02095023938,600.2257476742075,0.9525552254942915
10100,-233411.13510431582,129085.33791612624,-104325.79718818958,597.4516737583168,0.9525552254942915
10200,-233252.4403186054,128777.78761621844,-104474.65270238696,596.0282243998453,0.9525552254942915
10300,-234737.98757501645,130267.61099986418,-104470.37657515227,602.9236432640836,0.9525552254942915
10400,-233350.61851632083,128964.82679814554,-104385.79171817529,596.8939065455072,0.9525552254942915
10500,-233888.9167044484,129621.5453346906,-104267.3713697578,599.9334274948337,0.9525552254942915
10600,-233333.10661063576,129734.32171659754,-103598.78489403822,600.4553956688993,0.9525552254942915
10700,-233648.15291416412,130881.87353888433,-102766.27937527979,605.7666631452654,0.9525552254942915
10800,-233268.368243529,130615.9322157866,-102652.4360277424,604.5357945495657,0.9525552254942915
10900,-233118.27633324498,130083.64726213494,-103034.62907111004,602.0721953398539,0.9525552254942915
11000,-231893.29035838274,129149.02572055766,-102744.26463782508,597.7464429859441,0.9525552254942915
11100,-233122.32500733482,130347.20219104254,-102775.12281629228,603.2920188763225,0.9525552254942915
11200,-234306.21743644634,130963.55525246193,-103342.66218398442,606.1447144195635,0.9525552254942915
11300,-233572.38358056033,130126.53046595742,-103445.85311460291,602.2706736667767,0.9525552254942915
11400,-233928.42861809256,130809.47950584372,-103118.94911224884,605.4315984748042,0.9525552254942915
11500,-233765.07701233448,130279.09729364619,-103485.9797186883,602.9768058118688,0.9525552254942915
11600,-234655.63504450815,130647.86695389863,-104007.76809060952,604.6835995833834,0.9525552254942915
11700,-234581.91955807852,130547.29936623783,-104034.62019184069,604.2181379396077,0.9525552254942915
11800,-233540.75102315703,129652.2770228762,-103888.47400028084,600.0756643967183,0.9525552254942915
11900,-233396.99592768075,129406.48233057722,-103990.51359710353,598.9380413894457,0.9525552254942915
12000,-233196.0136216511,129213.75942144729,-103982.25420020381,598.0460529847977,0.9525552254942915
12100,-234406.0523695317,130417.63364130363,-103988.41872822808,603.6180000336176,0.9525552254942915
12200,-234150.81220867718,128795.72153073968,-105355.0906779375,596.1112287706029,0.9525552254942915
12300,-234432.81065051118,129209.44283981249,-105223.36781069869,598.0260743492357,0.9525552254942915
12400,-234582.02335442835,129283.5335393676,-105298.48981506075,598.3689917802448,0.9525552254942915
12500,-234934.9120427058,130143.48674468556,-104791.42529802024,602.3491532003193,0.9525552254942915
12600,-234564.24821453914,130031.63043519133,-104532.61777934781,601.8314434401979,0.9525552254942915
12700,-235692.6301354901,130524.64458481793,-105167.98555067217,604.1132837609965,0.9525552254942915
12800,-234794.0741201979,129620.86552654253,-105173.20859365538,599.9302811071615,0.9525552254942915
12900,-233929.3374544629,128710.05888539692,-105219.27856906597,595.7147523646469,0.9525552254942915
13000,-234661.6156621282,128311.26964882761,-106350.34601330059,593.8690175917329,0.9525552254942915
13100,-235662.68108228454,129319.33258024324,-106343.3485020413,598.5346821462877,0.9525552254942915
13200,-234423.09010515036,128173.52477304824,-106249.56533210212,593.231486576092,0.9525552254942915
13300,-236205.35099202069,128849.16187078063,-107356.18912124005,596.3585691821407,0.9525552254942915
13400,-235247.15348764276,128006.49943435448,-107240.65405328828,592.4584354319918,0.9525552254942915
13500,-234544.84436338255,127602.99385651131,-106941.85050687124,590.5908717973839,0.9525552254942915
13600,-234640.6397400885,128013.57829632971,-106627.06144375878,592.4911988581382,0.9525552254942915
13700,-235090.51697928156,128858.88595582754,-106231.63102345401,596.4035756172699,0.9525552254942915
13800,-234866.77848615358,129190.20934272488,-105676.5691434287,597.9370550600374,0.9525552254942915
13900,-234544.56188764377,128334.84799479367,-106209.7138928501,593.9781463470919,0.9525552254942915
14000,-235441.5076221251,128160.8887150865,-107280.61890703859,593.1730025212736,0.9525552254942915
14100,-235118.54951715702,128345.94660174707,-106772.60291540995,594.0295145458954,0.9525552254942915
14200,-236588.0559526221,129955.62778827979,-106632.4281643423,601.4796768543066,0.9525552254942915
14300,-234560.05040967884,128663.27667817101,-105896.77373150783,595.4982280989135,0.9525552254942915
14400,-234990.43083522609,129028.18928276119,-105962.2415524649,597.1871700802992,0.9525552254942915
14500,-235441.7670139172,129040.01866401592,-106401.74834990129,597.241920555793,0.9525552254942915
14600,-235457.82146112854,129359.83433882153,-106097.98712230701,598.7221383194161,0.9525552254942915
14700,-234688.88671800168,127796.45310745004,-106892.43361055164,591.4862682470758,0.9525552254942915
14800,-235330.27400306473,128429.35887646698,-106900.91512659774,594.4155754568238,0.9525552254942915
14900,-235777.13089526026,128478.48970426596,-107298.6411909943,594.6429699523993,0.9525552254942915
15000,-235249.11307455087,128897.8571667939,-106351.25590775697,596.5839478856941,0.9525552254942915
15100,-235419.0587795903,128962.5389393305,-106456.5198402598,596.883317542136,0.9525552254942915
15200,-234338.99045744026,129311.70240682666,-105027.2880506136,598.4993670597535,0.9525552254942915
15300,-233390.71647697734,129229.03036831692,-104161.68610866042,598.116732218508,0.9525552254942915
15400,-233938.29689870914,129093.40783998789,-104844.88905872125,597.4890241622904,0.9525552254942915
15500,-234426.88985274034,128740.2220330027,-105686.66781973763,595.8543578637207,0.9525552254942915
15600,-234371.08685807372,128901.3190754347,-105469.76778263901,596.5999707984836,0.9525552254942915
15700,-234715.06458869996,129557.22664610844,-105157.83794259152,599.6357383167466,0.9525552254942915
15800,-234267.58059903095,128677.59636787593,-105589.98423115502,595.5645045848414,0.9525552254942915
15900,-233603.16588976886,127927.49511973746,-105675.6707700314,592.0927760878396,0.9525552254942915
16000,-234450.3105334961,129394.2002379056,-105056.11029559048,598.881195608644,0.9525552254942915
16100,-235151.82426849985,129414.49946725648,-105737.32480124338,598.9751474760478,0.9525552254942915
16200,-234565.8176473328,129747.97319529939,-104817.8444520334,600.5185794427606,0.9525552254942915
16300,-234128.8285996453,130662.07866578398,-103466.74993386131,604.7493763105466,0.9525552254942915
16400,-233907.20753808925,130910.0663381666,-102997.14119992265,605.8971491895445,0.9525552254942915
16500,-233562.0061012418,131145.2288197041,-102416.77728153771,606.9855626412027,0.9525552254942915
16600,-233454.07642084965,130151.8453308898,-103302.23108995985,602.3878396336399,0.9525552254942915
16700,-232633.44485007832,129415.76269312066,-103217.68215695766,598.9809941230727,0.9525552254942915
16800,-233693.38558690483,130375.90820087935,-103317.47738602548,603.4248802368828,0.9525552254942915
16900,-234357.7201798209,130387.68286094791,-103970.03731887299,603.4793774437652,0.9525552254942915
17000,-234691.0791614321,130339.45757305995,-104351.62158837216,603.2561741006801,0.9525552254942915
17100,-233179.9433581191,129256.4980886284,-103923.44526949071,598.2438623460604,0.9525552254942915
17200,-232765.7460012366,128490.02191642183,-104275.72408481478,594.6963450263302,0.9525552254942915
17300,-233850.94054874638,129745.82596134907,-104105.11458739731,600.5086412999917,0.9525552254942915
17400,-233622.9742962406,128865.01377686416,-104757.96051937644,596.4319372964034,0.9525552254942915
17500,-234144.45736249024,129198.70593886182,-104945.75142362842,597.9763802511491,0.9525552254942915
17600,-234640.8783210502,129111.63136860263,-105529.24695244757,597.5733689674281,0.9525552254942915
17700,-233876.55710557336,129309.40539349057,-104567.15171208279,598.4887356860867,0.9525552254942915
17800,-234341.50070147263,129654.21809890773,-104687.2826025649,600.0846483692023,0.9525552254942915
17900,-233694.93385901907,129645.38373653276,-104049.55012248631,600.0437598789003,0.9525552254942915
18000,-233323.92564961268,128628.76303835982,-104695.16261125286,595.3384870144064,0.9525552254942915
18100,-234639.22407113807,129527.70729638822,-105111.51677474985,599.4991125373722,0.9525552254942915
18200,-233932.49999233196,129199.5530723019,-104732.94692003005,597.9803010782534,0.9525552254942915
18300,-234009.5787686915,129469.63146752841,-104539.9473011631,599.2303174773187,0.9525552254942915
18400,-233906.7064605453,129322.62256930768,-104584.08389123762,598.5499093557053,0.9525552254942915
18500,-233295.49803048326,128436.5525810509,-104858.94544943236,594.4488704143578,0.9525552254942915
18600,-234881.55292360345,129410.69142747205,-105470.8614961314,598.9575225483862,0.9525552254942915
18700,-233957.41877306113,128323.66918116808,-105633.74959189305,593.9264069240168,0.9525552254942915
18800,-233900.45858759293,128416.07308747634,-105484.3855001166,594.3540842216626,0.9525552254942915
18900,-233868.98736637738,129155.27860850561,-104713.70875787176,597.7753835180807,0.9525552254942915
19000,-234314.66352416435,129323.92934407108,-104990.73418009328,598.5559575621261,0.9525552254942915
19100,-234445.80180836143,129318.14078645382,-105127.66102190761,598.5291661116569,0.9525552254942915
19200,-234643.4743599128,128911.26564617967,-105732.20871373313,596.6460069745178,0.9525552254942915
19300,-234427.6720016771,128301.675116256,-106125.9968854211,593.8246107703512,0.9525552254942915
19400,-235385.20055252174,128734.80558704329,-106650.39496547845,595.8292886749459,0.9525552254942915
19500,-235752.24382358487,129309.7848074059,-106442.45901617897,598.490491745159,0.9525552254942915
19600,-235846.19115376333,128930.14391529653,-106916.0472384668,596.733382145576,0.9525552254942915
19700,-234993.0422124588,127728.6446819423,-107264.3975305165,591.1724273572542,0.9525552254942915
