#"Step","Potential Energy (kJ/mole)","Kinetic Energy (kJ/mole)","Total Energy (kJ/mole)","Temperature (K)","Density (g/mL)"
100,-396103.0807489222,78.63420369446601,-396024.4465452277,0.36428278474717635,0.9580024802665849
200,-396247.93843455147,226.4769603757944,-396021.4614741757,1.0491828483102763,0.9580024802665849
300,-396361.5973174921,340.52830068053515,-396021.0690168116,1.57753994863509,0.9580024802665849
400,-396478.64611385483,458.2625702474263,-396020.38354360743,2.1229586794541344,0.9580024802665849
500,-396565.2744029197,546.9100001649142,-396018.36440275476,2.5336289872059163,0.9580024802665849
600,-396625.17348071,605.8110568329455,-396019.36242387706,2.806495499988975,0.9580024802665849
700,-396729.1211476887,708.6659333029141,-396020.4552143858,3.282983581064868,0.9580024802665849
800,-396857.0789704211,832.5678633345647,-396024.51110708655,3.8569747704823034,0.9580024802665849
900,-396931.32501941454,907.3304128548734,-396023.9946065597,4.203321632973307,0.9580024802665849
1000,-397000.69608099665,979.3030455458717,-396021.3930354508,4.536743856769637,0.9580024802665849
1100,-397113.54684401955,1089.702202500188,-396023.84464151936,5.048181760882211,0.9580024802665849
1200,-397221.8339817703,1202.9047550260348,-396018.9292267443,5.572606745648811,0.9580024802665849
1300,-397288.7109372346,1272.4602160386432,-396016.25072119595,5.894831119287757,0.9580024802665849
1400,-397322.56859072763,1301.9259066579766,-396020.64268406964,6.03133461686263,0.9580024802665849
1500,-397373.50737376045,1351.8995232861316,-396021.6078504743,6.2628436469524615,0.9580024802665849
1600,-397433.5126318587,1413.758416364801,-396019.7542154939,6.549412706895283,0.9580024802665849
1700,-397506.856505367,1490.4233337596324,-396016.4331716073,6.904572526526888,0.9580024802665849
1800,-397578.99820222054,1563.132426335785,-396015.86577588477,7.241406492862904,0.9580024802665849
1900,-397688.9559280686,1673.5901918458399,-396015.36573622277,7.753115908441116,0.9580024802665849
2000,-397706.74265430775,1691.2937568331963,-396015.44889747456,7.835129887734464,0.9580024802665849
2100,-397794.9173260955,1774.5244318449277,-396020.3928942506,8.22070640081861,0.9580024802665849
2200,-397856.0628851494,1838.8391962044102,-396017.223688945,8.518652591667868,0.9580024802665849
2300,-397883.5847069444,1863.8462406639019,-396019.7384662805,8.634500853187697,0.9580024802665849
2400,-397960.6072613904,1942.3322415950734,-396018.27501979534,8.998097070095643,0.9580024802665849
2500,-397982.6088317679,1969.9450831547038,-396012.6637486132,9.126017012633735,0.9580024802665849
2600,-398046.4053108087,2030.6729605621458,-396015.7323502465,9.40734650100401,0.9580024802665849
2700,-398050.9108089926,2030.6857072006187,-396020.22510179196,9.407405551401178,0.9580024802665849
2800,-398101.20055943634,2081.5484487432623,-396019.6521106931,9.643033563875525,0.9580024802665849
2900,-398160.3392731175,2142.231262820482,-396018.108010297,9.9241542907317,0.9580024802665849
3000,-398216.7334934529,2194.188059250133,-396022.54543420277,10.164850649322375,0.9580024802665849
3100,-398229.5354985269,2206.2959918798056,-396023.23950664705,10.220942161776756,0.9580024802665849
3200,-398260.34354001377,2234.460438195152,-396025.8831018186,10.351417482344397,0.9580024802665849
3300,-398334.3621446928,2311.5972056139844,-396022.7649390788,10.708763206234588,0.9580024802665849
3400,-398414.3864560351,2388.509040468034,-396025.87741556705,11.065066901882235,0.9580024802665849
3500,-398436.30286645424,2410.4475741469214,-396025.85529230733,11.166699903379484,0.9580024802665849
3600,-398483.8287330428,2464.0517868829993,-396019.77694615984,11.415028124080381,0.9580024802665849
3700,-398533.79081682954,2518.227495254807,-396015.5633215747,11.666003869800585,0.9580024802665849
3800,-398622.4014184652,2605.098421698558,-396017.30299676664,12.06844430299243,0.9580024802665849
3900,-398685.1162826298,2664.346009680781,-396020.770272949,12.342916165435115,0.9580024802665849
4000,-398684.90512888227,2663.6496894755055,-396021.2554394068,12.33969037498343,0.9580024802665849
4100,-398700.8848882513,2679.1720497170427,-396021.71283853427,12.411599650450968,0.9580024802665849
4200,-398783.49764973205,2764.2116691288884,-396019.28598060313,12.80555632474444,0.9580024802665849
4300,-398815.5153841851,2796.11739301515,-396019.39799117,12.953363581645293,0.9580024802665849
4400,-398858.5265506068,2837.6326798000982,-396020.8938708067,13.145688340707652,0.9580024802665849
4500,-398846.71365696564,2825.4562411481247,-396021.2574158175,13.089279465535737,0.9580024802665849
4600,-398858.19740681816,2833.713969188693,-396024.4834376295,13.127534423619771,0.9580024802665849
4700,-398904.8827688815,2883.3876905576853,-396021.4950783238,13.35765415140847,0.9580024802665849
4800,-398908.4070059927,2888.60507221027,-396019.80193378247,13.381824324541745,0.9580024802665849
4900,-398929.1109447377,2908.851786122912,-396020.2591586148,13.475619759346863,0.9580024802665849
5000,-398958.75268416386,2934.554160104315,-396024.19852405955,13.594689221853772,0.9580024802665849
5100,-398988.764798495,2966.3097418426296,-396022.45505665237,13.741800926473397,0.9580024802665849
5200,-399022.229135721,2996.058528865997,-396026.170606855,13.879615903551693,0.9580024802665849
5300,-399092.27468286734,3069.5077136334476,-396022.76696923387,14.219878439539958,0.9580024802665849
5400,-399041.0715305349,3016.991744088571,-396024.0797864463,13.9765916415476,0.9580024802665849
5500,-399096.66619756166,3078.875657226521,-396017.7905403351,14.26327661004473,0.9580024802665849
5600,-399100.32024081703,3079.803803836665,-396020.51643698034,14.267576365315483,0.9580024802665849
5700,-399135.989921934,3114.059291096476,-396021.9306308375,14.426269194969631,0.9580024802665849
5800,-399189.2725923015,3164.2817501904865,-396024.990842111,14.658931018909545,0.9580024802665849
5900,-399201.52545016725,3180.9313689376413,-396020.5940812296,14.736062460409974,0.9580024802665849
6000,-399225.4013784593,3202.354322646521,-396023.0470558128,14.835306973203707,0.9580024802665849
6100,-399217.4233673094,3199.3792150760755,-396018.0441522333,14.821524415235736,0.9580024802665849
6200,-399283.3957766732,3265.4012559579714,-396017.99452071526,15.127379778133516,0.9580024802665849
6300,-399287.11802766565,3263.5439540755724,-396023.5740735901,15.118775594838606,0.9580024802665849
6400,-399318.81235702615,3291.137260447589,-396027.67509657855,15.246605038176476,0.9580024802665849
6500,-399351.5993489949,3329.5458913441144,-396022.05345765076,15.42453782523282,0.9580024802665849
6600,-399402.37715811934,3374.496171843519,-396027.88098627585,15.63277562235115,0.9580024802665849
6700,-399391.2355495235,3368.647017852221,-396022.58853167127,15.605678684832155,0.9580024802665849
6800,-399393.53409065586,3368.562226001266,-396024.97186465457,15.60528587597623,0.9580024802665849
6900,-399449.6165815471,3425.9667852670736,-396023.64979628,15.871219677350814,0.9580024802665849
7000,-399399.122051361,3375.2092226030254,-396023.912828758,15.636078919188092,0.9580024802665849
7100,-399460.89203830156,3438.5949408711554,-396022.2970974304,15.929721187807381,0.9580024802665849
7200,-399475.1381749818,3452.848134604901,-396022.2900403769,15.995750890671088,0.9580024802665849
7300,-399532.1806553481,3508.6571270408895,-396023.5235283072,16.254293029121545,0.9580024802665849
7400,-399469.0588452844,3442.0290712903816,-396027.029773994,15.945630226540212,0.9580024802665849
7500,-399473.70268832054,3444.677104951683,-396029.02558336884,15.957897573711314,0.9580024802665849
7600,-399498.7972292779,3475.0848196098495,-396023.7124096681,16.098765115481232,0.9580024802665849
7700,-399583.4943091599,3559.015736616373,-396024.47857254354,16.487585587197568,0.9580024802665849
7800,-399560.27413768973,3539.7396370059796,-396020.5345006838,16.398286644559043,0.9580024802665849
7900,-399569.94108446967,3551.7218204292567,-396018.2192640404,16.45379560808518,0.9580024802665849
8000,-399561.59572233306,3535.18547548226,-396026.4102468508,16.37718892163309,0.9580024802665849
8100,-399595.6082645664,3565.660682478401,-396029.947582088,16.518369130101103,0.9580024802665849
8200,-399593.89655931573,3567.41972351585,-396026.47683579987,16.526518107740607,0.9580024802665849
8300,-399578.35098992847,3555.870810738128,-396022.48017919034,16.473016324676617,0.9580024802665849
8400,-399653.4607731616,3630.362456955425,-396023.0983162062,16.81810819372988,0.9580024802665849
8500,-399620.8413909869,3600.2545081093995,-396020.5868828775,16.678629354581574,0.9580024802665849
8600,-399630.9103893703,3607.7723517707054,-396023.13803759956,16.713456705728607,0.9580024802665849
8700,-399637.78677525837,3613.8047417796543,-396023.98203347874,16.741402507019853,0.9580024802665849
8800,-399667.9118139902,3643.442195707379,-396024.46961828286,16.878701719606237,0.9580024802665849
8900,-399658.77541078534,3635.1409425229003,-396023.63446826243,16.840245125848604,0.9580024802665849
9000,-399719.0103114797,3695.1386777984417,-396023.87163368124,17.118192139461414,0.9580024802665849
9100,-399666.9134767717,3638.486423161052,-396028.4270536106,16.855743483381655,0.9580024802665849
9200,-399692.2437585201,3663.9073208678674,-396028.33643765224,16.973508971837457,0.9580024802665849
9300,-399715.60449780896,3689.2967788388523,-396026.3077189701,17.091128811784316,0.9580024802665849
9400,-399721.92195981275,3700.681080035195,-396021.2408797776,17.14386801110676,0.9580024802665849
9500,-399723.6048604334,3696.077760568369,-396027.527099865,17.122542557860335,0.9580024802665849
9600,-399715.8309985837,3694.027120093044,-396021.80387849064,17.11304270934951,0.9580024802665849
9700,-399743.0037933467,3719.833472495702,-396023.170320851,17.232593864899254,0.9580024802665849
9800,-399753.24565372523,3730.2762479947924,-396022.96940573043,17.280971328656367,0.9580024802665849
9900,-399809.61890732776,3786.9320893285476,-396022.68681799923,17.543436600555683,0.9580024802665849
10000,-399768.58189817984,3747.176077468488,-396021.40582071134,17.359261902645652,0.9580024802665849
10100,-399732.088691487,3708.464262656453,-396023.6244288305,17.17992457817628,0.9580024802665849
10200,-399808.9676574031,3787.980023531498,-396020.9876338716,17.548291286834008,0.9580024802665849
10300,-399836.1181811346,3810.4167504871,-396025.70143064746,17.652232231003246,0.9580024802665849
10400,-399854.5616676202,3828.2116554345776,-396026.35001218563,17.734669354087313,0.9580024802665849
10500,-399838.39336083364,3809.5033826049294,-396028.8899782287,17.648000940038457,0.9580024802665849
10600,-399858.6064829705,3836.511503116504,-396022.094979854,17.773119436678567,0.9580024802665849
10700,-399888.28924025176,3864.435411975639,-396023.8538282761,17.902480437392153,0.9580024802665849
10800,-399907.19380605314,3878.8290757231493,-396028.36473033,17.96916088516563,0.9580024802665849
10900,-399840.51239737216,3817.7652295442313,-396022.7471678279,17.686274979436092,0.9580024802665849
11000,-399918.2771955235,3894.159056466402,-396024.1181390571,18.04017893854315,0.9580024802665849
11100,-399915.13207535725,3887.411661726668,-396027.7204136306,18.0089207883986,0.9580024802665849
11200,-399872.8433285309,3843.8441940732473,-396028.99913445767,17.80708904476148,0.9580024802665849
11300,-399927.75903438684,3900.7197652068116,-396027.03926918004,18.070572242443802,0.9580024802665849
11400,-399928.9691235912,3903.4103525988357,-396025.5587709924,18.0830367250954,0.9580024802665849
11500,-399930.69699269393,3902.5582440735525,-396028.1387486204,18.079089225764154,0.9580024802665849
11600,-399909.08725802135,3888.033058205754,-396021.0541998156,18.011799485316715,0.9580024802665849
11700,-399939.57199663203,3918.6195897428697,-396020.9524068892,18.153495418646067,0.9580024802665849
11800,-399933.31593693886,3911.3386914873918,-396021.9772454515,18.11976574673037,0.9580024802665849
11900,-399999.0916006705,3971.152088079776,-396027.9395125907,18.39685878833504,0.9580024802665849
12000,-399966.63925699797,3941.430833348153,-396025.20842364983,18.25917135804219,0.9580024802665849
12100,-399929.952550943,3904.4884847676294,-396025.4640661754,18.088031307227876,0.9580024802665849
12200,-399979.5820365818,3954.956761736241,-396024.6252748456,18.32183191322055,0.9580024802665849
12300,-399953.1970954789,3927.137988472772,-396026.0591070061,18.192957966305006,0.9580024802665849
12400,-400016.213320042,3987.4082837635215,-396028.8050362785,18.472167648282035,0.9580024802665849
12500,-400001.09740909096,3972.422520973945,-396028.674888117,18.40274422763218,0.9580024802665849
12600,-399999.6981570972,3971.0810056585833,-396028.6171514386,18.396529490127364,0.9580024802665849
12700,-400031.0716126468,4000.564361238765,-396030.50725140807,18.53311482284303,0.9580024802665849
12800,-400084.79712673277,4050.8573497042053,-396033.9397770286,18.766103382918413,0.9580024802665849
12900,-400006.2739592297,3978.30703335032,-396027.96692587936,18.430004967292927,0.9580024802665849
13000,-400019.46352048125,3994.7458419876057,-396024.71767849365,18.506159804589736,0.9580024802665849
13100,-400022.290367024,3995.276698416774,-396027.0136686072,18.508619063401202,0.9580024802665849
13200,-400038.1076918701,4013.2311458005897,-396024.87654606946,18.59179528677833,0.9580024802665849
13300,-399998.34465756174,3972.052220554604,-396026.2924370071,18.401028764619735,0.9580024802665849
13400,-400031.1099915132,4009.0865977869034,-396022.02339372627,18.57259514967501,0.9580024802665849
13500,-400071.72516042646,4045.7017786935685,-396026.02338173287,18.742219555315685,0.9580024802665849
13600,-400064.82253853884,4035.9153354979026,-396028.90720304096,18.696882633052958,0.9580024802665849
13700,-400073.55416282173,4044.2109617051756,-396029.34320111654,18.735313159134826,0.9580024802665849
13800,-400097.73935742956,4072.2065274377164,-396025.53282999183,18.865006119277826,0.9580024802665849
13900,-400122.72302454617,4095.015743480002,-396027.70728106616,18.970672665734735,0.9580024802665849
14000,-400101.5090601472,4075.349554479455,-396026.15950566775,18.87956658520114,0.9580024802665849
14100,-400069.4254805902,4043.9650798974035,-396025.46040069277,18.734174080903657,0.9580024802665849
14200,-400064.2091660192,4033.7043583444056,-396030.5048076748,18.686640004824437,0.9580024802665849
14300,-400090.6133471625,4060.6732981241585,-396029.9400490383,18.811576991823376,0.9580024802665849
14400,-400092.9276643796,4069.008309922411,-396023.9193544572,18.85018997658209,0.9580024802665849
14500,-400085.39771309774,4058.4178744356395,-396026.9798386621,18.801128459461673,0.9580024802665849
14600,-400087.54852253385,4061.1047791124147,-396026.44374342146,18.81357588147422,0.9580024802665849
14700,-400104.12168777175,4082.6669890113044,-396021.45469876047,18.913465515987344,0.9580024802665849
14800,-400114.65515066497,4087.831245183006,-396026.82390548196,18.93738957868511,0.9580024802665849
14900,-400109.18065316137,4084.025630123142,-396025.1550230382,18.91975959088655,0.9580024802665849
15000,-400098.0872409353,4069.1110204569095,-396028.9762204784,18.850665795980927,0.9580024802665849
15100,-400112.5105584087,4080.13485370775,-396032.37570470094,18.901735082455907,0.9580024802665849
15200,-400152.9478887068,4120.1914684180665,-396032.75642028876,19.087302360671323,0.9580024802665849
15300,-400154.4400897501,4126.073395354051,-396028.36669439607,19.11455112295606,0.9580024802665849
15400,-400147.4825287517,4122.221956082129,-396025.26057266956,19.096708848763114,0.9580024802665849
15500,-400155.81001557596,4129.8155885624365,-396025.9944270135,19.131887301094384,0.9580024802665849
15600,-400154.2812102074,4125.492266480467,-396028.7889437269,19.1118589707574,0.9580024802665849
15700,-400151.3576666061,4119.475144174057,-396031.882522432,19.083983899007958,0.9580024802665849
15800,-400183.0374708129,4150.196967622498,-396032.8405031904,19.226306589039808,0.9580024802665849
15900,-400142.71950067487,4112.245100714961,-396030.4743999599,19.050489818297784,0.9580024802665849
16000,-400199.83594282204,4165.8851577706755,-396033.9507850514,19.29898409229306,0.9580024802665849
16100,-400183.63314775284,4151.577773885889,-396032.0553738669,19.232703346776162,0.9580024802665849
16200,-400189.31716063526,4164.079655054884,-396025.23750558036,19.29061987511687,0.9580024802665849
16300,-400223.91903033014,4199.2169905720075,-396024.70203975815,19.45339797713095,0.9580024802665849
16400,-400201.05375314783,4174.63660591907,-396026.4171472288,19.339526270534666,0.9580024802665849
16500,-400196.3937169714,4167.798867584424,-396028.59484938695,19.307849592385857,0.9580024802665849
16600,-400207.4081953326,4179.522061034295,-396027.88613429834,19.362158752463856,0.9580024802665849
16700,-400212.35808312055,4183.1954025548075,-396029.1626805657,19.37917596654565,0.9580024802665849
16800,-400221.95814550016,4197.305178251881,-396024.6529672483,19.444541267414714,0.9580024802665849
16900,-400191.079954016,4163.323194336379,-396027.75675967964,19.287115476214844,0.9580024802665849
17000,-400239.0694404151,4210.415887490351,-396028.65355292475,19.50527826794387,0.9580024802665849
17100,-400240.4601069698,4213.916293110153,-396026.54381385964,19.52149433483354,0.9580024802665849
17200,-400261.4343997119,4230.906704959056,-396030.52769475285,19.600204543006676,0.9580024802665849
17300,-400258.14700656664,4227.622736488251,-396030.5242700784,19.58499114828324,0.9580024802665849
17400,-400251.41700348444,4220.516843836995,-396030.90015964746,19.552072211720063,0.9580024802665849
17500,-400245.96285917144,4214.664802549931,-396031.2980566215,19.524961898442267,0.9580024802665849
17600,-400254.21488368185,4220.941620841993,-396033.2732628399,19.554040044329888,0.9580024802665849
17700,-400253.79927798454,4226.610428577522,-396027.188849407,19.580301505260024,0.9580024802665849
17800,-400250.89004476275,4225.006265592438,-396025.88377917034,19.57287001957136,0.9580024802665849
17900,-400255.3816658193,4226.216419051963,-396029.16524676734,19.578476206847327,0.9580024802665849
18000,-400288.6697910121,4256.128565691537,-396032.54122532054,19.717047967781895,0.9580024802665849
18100,-400266.18667979445,4233.334382653016,-396032.85229714145,19.611451063595357,0.9580024802665849
18200,-400278.51509029884,4251.7496239483735,-396026.7654663505,19.696761972407117,0.9580024802665849
18300,-400305.8141827388,4276.520870121393,-396029.2933126174,19.811517868869515,0.9580024802665849
18400,-400288.5387163097,4257.998266862413,-396030.5404494473,19.72570959233167,0.9580024802665849
18500,-400274.31521115545,4243.277405983965,-396031.0378051715,19.657513362920948,0.9580024802665849
18600,-400292.4979382893,4263.909188536258,-396028.5887497531,19.753092676366407,0.9580024802665849
18700,-400313.548506449,4283.984614236391,-396029.5638922126,19.846094597101118,0.9580024802665849
18800,-400265.11320886295,4237.133244336008,-396027.97996452695,19.629049765530795,0.9580024802665849
18900,-400296.46273100283,4266.07975093081,-396030.382980072,19.76314807816875,0.9580024802665849
19000,-400332.7527947286,4303.03394853674,-396029.7188461919,19.93434302107542,0.9580024802665849
19100,-400320.97368881013,4291.616238346658,-396029.35745046346,19.88144905041044,0.9580024802665849
19200,-400292.2210772177,4265.978045529431,-396026.24303168827,19.76267691517482,0.9580024802665849
19300,-400312.2338566878,4286.634108560895,-396025.5997481269,19.858368710977214,0.9580024802665849
19400,-400341.1394064403,4314.411759607399,-396026.72764683294,19.987052154078807,0.9580024802665849
19500,-400318.1459410181,4289.678881325686,-396028.4670596924,19.872474001672217,0.9580024802665849
19600,-400327.39883645903,4300.962870566109,-396026.4359658929,19.92474849331112,0.9580024802665849
19700,-400323.1722303312,4293.910377648288,-396029.2618526829,19.892076937692707,0.9580024802665849
19800,-400309.9331106795,4278.380129781117,-396031.55298089836,19.82013112181278,0.9580024802665849
