#"Step","Potential Energy (kJ/mole)","Kinetic Energy (kJ/mole)","Total Energy (kJ/mole)","Temperature (K)","Density (g/mL)"
100,-394979.9970351276,6501.058384818287,-388478.93865030934,30.08915091297135,0.9525552254942915
200,-389256.8908124198,11851.738655275607,-377405.1521571442,54.85395329050741,0.9525552254942915
300,-384273.86513138795,16987.234826248954,-367286.630305139,78.6228090913191,0.9525552254942915
400,-379508.4268175983,21254.12352644789,-358254.30329115037,98.37144853269929,0.9525552254942915
500,-375811.1669771266,25902.099807741946,-349909.0671693847,119.88389335158664,0.9525552254942915
600,-371618.327831401,29393.064083355915,-342225.2637480451,136.04128568727728,0.9525552254942915
700,-368153.5994750133,32515.49818144244,-335638.1012935709,150.4929926604887,0.9525552254942915
800,-364813.45742332796,35750.89623418305,-329062.5611891449,165.46753595943602,0.9525552254942915
900,-361978.0274140113,38225.90451923735,-323752.12289477396,176.92273192779754,0.9525552254942915
1000,-359132.2864146405,40450.479263803456,-318681.80715083703,187.2188346920408,0.9525552254942915
1100,-356713.43406928936,42773.69257156737,-313939.741497722,197.97147090641093,0.9525552254942915
1200,-354502.78123527626,44597.06840055471,-309905.71283472155,206.41068606829688,0.9525552254942915
1300,-352114.29064405384,46054.290836452856,-306059.999807601,213.155216449673,0.9525552254942915
1400,-350002.08602781827,47742.84197258798,-302259.2440552303,220.97041621438933,0.9525552254942915
1500,-347831.0513153742,49115.651291081565,-298715.40002429264,227.3242534380865,0.9525552254942915
1600,-346191.1978132543,50619.956923079386,-295571.24089017493,234.2867011660006,0.9525552254942915
1700,-344213.2335460079,51328.99035469355,-292884.24319131434,237.5683535775528,0.9525552254942915
1800,-343385.6556134722,53007.5183325478,-290378.1372809244,245.33716269258014,0.9525552254942915
1900,-341582.2116087801,53648.79111221098,-287933.42049656913,248.3051953268856,0.9525552254942915
2000,-339968.00859832065,54441.651858872676,-285526.356739448,251.97482959981977,0.9525552254942915
2100,-338540.13996342034,55115.22670967411,-283424.9132537462,255.09236741247437,0.9525552254942915
2200,-336938.0179616385,55599.495101562585,-281338.52286007593,257.3337293359332,0.9525552254942915
2300,-335900.5265047359,56167.971099860384,-279732.55540487554,259.9648332409726,0.9525552254942915
2400,-335167.14302295307,57542.26740550436,-277624.8756174487,266.32555275646365,0.9525552254942915
2500,-334207.7541139242,57763.84066148751,-276443.9134524367,267.3510705633987,0.9525552254942915
2600,-332787.9510509684,57789.025570617,-274998.9254803514,267.4676350497747,0.9525552254942915
2700,-332541.08177907625,58495.7145462358,-274045.36723284045,270.7384365065934,0.9525552254942915
2800,-331609.4536054232,58897.882786431815,-272711.5708189914,272.59981047916386,0.9525552254942915
2900,-331062.0574621991,59546.80699671607,-271515.25046548306,275.6032565857119,0.9525552254942915
3000,-329814.28489914583,59582.02894351119,-270232.25595563464,275.76627596037895,0.9525552254942915
3100,-328400.87268262217,59251.73510291043,-269149.13757971174,274.23756161462416,0.9525552254942915
3200,-328444.90461751306,60448.878157055355,-267996.0264604577,279.778354496088,0.9525552254942915
3300,-327751.99789503263,60540.773690973,-267211.22420405963,280.203678870152,0.9525552254942915
3400,-326895.56400517747,60884.134737437824,-266011.42926773964,281.792872772616,0.9525552254942915
3500,-326355.0105030262,61308.279083002824,-265046.73142002337,283.75595977586335,0.9525552254942915
3600,-325974.3988045403,61621.77405390277,-264352.6247506375,285.20692313159844,0.9525552254942915
3700,-325052.8514857576,61197.383608483826,-263855.4678772738,283.24269709295004,0.9525552254942915
3800,-324541.4582418264,60755.640530482284,-263785.8177113441,281.1981570577785,0.9525552254942915
3900,-324994.0999853709,61355.55584683095,-263638.54413853993,283.9747730209225,0.9525552254942915
4000,-324726.1823652559,61739.93945408703,-262986.24291116884,285.7538335496219,0.9525552254942915
4100,-324402.17366381595,62181.30209636409,-262220.87156745186,287.79661279643426,0.9525552254942915
4200,-323793.0700615407,62126.938840483286,-261666.1312210574,287.54500081058626,0.9525552254942915
4300,-322998.16519499803,61944.74737997772,-261053.4178150203,286.7017555994667,0.9525552254942915
4400,-323174.77889687987,62872.17753577337,-260302.6013611065,290.99422372806293,0.9525552254942915
4500,-322453.91931495676,62601.86850993917,-259852.05080501758,289.7431398906286,0.9525552254942915
4600,-322045.8114783843,62204.823193917866,-259840.98828446644,287.9054765863038,0.9525552254942915
4700,-322058.7479856084,62980.73260751611,-259078.0153780923,291.4966542159453,0.9525552254942915
4800,-320712.34286938,62283.16087818146,-258429.18199119857,288.2680505341835,0.9525552254942915
4900,-321230.2179044089,63408.87588293248,-257821.34202147645,293.4782496522301,0.9525552254942915
5000,-320715.3780408208,62987.32322583569,-257728.05481498514,291.5271578812701,0.9525552254942915
5100,-320182.0962414616,63286.58503642399,-256895.5112050376,292.912245239093,0.9525552254942915
5200,-320182.6001671017,63550.8991664628,-256631.70100063892,294.13558262147075,0.9525552254942915
5300,-320377.40685910685,63568.39111420786,-256809.015744899,294.2165414168404,0.9525552254942915
5400,-319835.4505785131,63568.59458682465,-256266.85599168844,294.2174831586171,0.9525552254942915
5500,-319608.5856800913,63391.4767866733,-256217.108893418,293.3977206057114,0.9525552254942915
5600,-320031.7190047526,63984.40953311091,-256047.30947164167,296.14201881574854,0.9525552254942915
5700,-319942.5677122404,64211.462625270826,-255731.10508696956,297.1928992033498,0.9525552254942915
5800,-319290.78209720785,63989.43854326941,-255301.34355393844,296.1652948173847,0.9525552254942915
5900,-319623.8790697255,64360.709079734865,-255263.16998999065,297.88366351060193,0.9525552254942915
6000,-319219.6103105997,63847.66340409289,-255371.94690650678,295.50911034619895,0.9525552254942915
6100,-319593.200929089,64089.72916638106,-255503.47176270792,296.62947457325487,0.9525552254942915
6200,-318990.89224783937,63833.821805761196,-255157.07044207817,295.4450466328116,0.9525552254942915
6300,-319415.73530315096,64088.23000150442,-255327.50530164654,296.62253591872405,0.9525552254942915
6400,-319012.6544590937,63776.07035184279,-255236.5841072509,295.1777528923874,0.9525552254942915
6500,-318773.4677296351,63873.62187464349,-254899.84585499158,295.62925514288173,0.9525552254942915
6600,-318739.1513139014,63802.030612784554,-254937.12070111686,295.2979059756209,0.9525552254942915
6700,-319065.5873971344,64630.15524608924,-254435.43215104516,299.1307537353708,0.9525552254942915
6800,-318291.6390020498,64093.48554087477,-254198.15346117504,296.6468603760482,0.9525552254942915
6900,-317976.24267949956,63967.786959593184,-254008.45571990637,296.0650837855533,0.9525552254942915
7000,-317943.91818278516,64289.65435819153,-253654.26382459363,297.55479763784047,0.9525552254942915
7100,-317601.4482134064,64011.535528843524,-253589.91268456285,296.26756732353755,0.9525552254942915
7200,-317769.6006633588,64291.01038056123,-253478.59028279758,297.5610737792482,0.9525552254942915
7300,-318344.48590047145,64877.531053529354,-253466.9548469421,300.2756946913951,0.9525552254942915
7400,-318250.3509245389,64833.36686182697,-253416.98406271194,300.0712875086838,0.9525552254942915
7500,-318198.3240812407,64732.63154019421,-253465.69254104648,299.60504953396367,0.9525552254942915
7600,-317370.50268033287,63897.9573889256,-253472.54529140727,295.7418883355768,0.9525552254942915
7700,-318332.88413042435,64372.34862957394,-253960.5355008504,297.93753538052465,0.9525552254942915
7800,-317894.5320921228,64432.83763910155,-253461.69445302128,298.2174994769097,0.9525552254942915
7900,-317822.4553755396,64707.0027647969,-253115.4526107427,299.48643068069424,0.9525552254942915
8000,-317606.489585808,64855.62410526397,-252750.86548054405,300.1743017437576,0.9525552254942915
8100,-316919.93944202596,63959.11622468615,-252960.8232173398,296.0249526198722,0.9525552254942915
8200,-317318.44766986975,64630.5040904138,-252687.94357945595,299.1323683077843,0.9525552254942915
8300,-317818.22938265884,64926.85757220525,-252891.3718104536,300.5039949121586,0.9525552254942915
8400,-317106.9963586484,64254.122823945014,-252852.8735347034,297.39034538517194,0.9525552254942915
8500,-317626.97316175187,64561.35693588911,-253065.61622586276,298.8123313161839,0.9525552254942915
8600,-317244.31916536996,64608.29952325765,-252636.0196421123,299.02959787679123,0.9525552254942915
8700,-317440.79630696075,64542.47781290702,-252898.31849405373,298.7249521931415,0.9525552254942915
8800,-317829.9035108336,64770.3806454998,-253059.52286533383,299.7797654739131,0.9525552254942915
8900,-317919.5313519775,64873.02774818707,-253046.50360379042,300.25485183381244,0.9525552254942915
9000,-317394.61097937217,64372.3415819183,-253022.26939745387,297.9375027615322,0.9525552254942915
9100,-317507.7710596812,65040.95463277699,-252466.8164269042,301.03207564471853,0.9525552254942915
9200,-317245.12060292345,64599.75645719911,-252645.36414572434,298.99005760677994,0.9525552254942915
9300,-317093.74376314646,64683.99064572854,-252409.75311741792,299.37992261962347,0.9525552254942915
9400,-316899.4569132007,64390.69417322148,-252508.7627399792,298.02244491351394,0.9525552254942915
9500,-317048.7780607273,64934.407809494645,-252114.37025123264,300.5389400265972,0.9525552254942915
9600,-316945.7166431048,64779.78725295409,-252165.9293901507,299.8233025127331,0.9525552254942915
9700,-316283.66256845975,64410.77797839418,-251872.88459006557,298.1153997231738,0.9525552254942915
9800,-316974.1652457719,65103.7672120675,-251870.39803370438,301.32279402711583,0.9525552254942915
9900,-316561.30052898685,64927.80070337729,-251633.49982560956,300.50836005003094,0.9525552254942915
10000,-316996.73541466566,65376.181313217385,-251620.55410144827,302.5836208825494,0.9525552254942915
10100,-317212.7608342455,65577.97611012362,-251634.78472412186,303.5175971273626,0.9525552254942915
10200,-317161.0816096631,65393.86683543616,-251767.21477422694,302.6654756076597,0.9525552254942915
10300,-316042.17758019967,64667.353795245755,-251374.82378495391,299.3029215106868,0.9525552254942915
10400,-316785.3720506155,65082.61505500111,-251702.75699561439,301.2248945146931,0.9525552254942915
10500,-317098.3868097584,65257.66623353792,-251840.72057622045,302.0350920266533,0.9525552254942915
10600,-317499.60408614436,65558.12658188332,-251941.47750426104,303.4257266325262,0.9525552254942915
10700,-317028.2829935667,64898.30179146433,-252129.98120210238,300.37182886391054,0.9525552254942915
10800,-317165.4569116314,65759.93303177418,-251405.5238798572,304.35975681139024,0.9525552254942915
10900,-316552.3185272538,64789.8915874628,-251762.426939791,299.87006887413327,0.9525552254942915
11000,-316874.2945668553,65127.3420850368,-251746.9524818185,301.43190670824237,0.9525552254942915
11100,-317785.1773846173,65677.10046670458,-252108.0769179127,303.97637899760093,0.9525552254942915
11200,-316927.06040578196,64714.66564035171,-252212.39476543025,299.52189712405595,0.9525552254942915
11300,-316873.1190733663,64535.71679985861,-252337.40227350767,298.69365988196745,0.9525552254942915
11400,-317241.56333345594,64669.251041729876,-252572.31229172606,299.3117026248379,0.9525552254942915
11500,-316463.0928716515,63888.94032811525,-252574.15254353627,295.70015425360833,0.9525552254942915
11600,-316786.81437822105,64645.77673373197,-252141.0376444891,299.2030553932462,0.9525552254942915
11700,-316734.5994218369,65007.622179818805,-251726.9772420181,300.8778015022649,0.9525552254942915
11800,-316802.403412648,64982.18132579827,-251820.22208684974,300.7600524142447,0.9525552254942915
11900,-316837.8840029151,65104.5477647197,-251733.33623819542,301.3264066952627,0.9525552254942915
12000,-316653.619942578,64872.593787255464,-251781.02615532256,300.2528433122474,0.9525552254942915
12100,-317289.41476872424,65516.79719190323,-251772.617576821,303.23443989448424,0.9525552254942915
12200,-317107.94838101463,65320.661975887255,-251787.28640512738,302.32665815115547,0.9525552254942915
12300,-316845.2244825349,65464.82526532997,-251380.39921720495,302.99389580930074,0.9525552254942915
12400,-316524.95165170217,65241.24100693918,-251283.710644763,301.9590703863826,0.9525552254942915
12500,-317120.8803033489,65628.04837328172,-251492.83193006716,303.74934891200076,0.9525552254942915
12600,-316669.2274181568,65216.867164103314,-251452.3602540535,301.84625979585934,0.9525552254942915
12700,-316824.0075187427,65247.789416729705,-251576.218102013,301.9893786960091,0.9525552254942915
12800,-316653.60665996047,65345.81172462925,-251307.7949353312,302.4430599030745,0.9525552254942915
12900,-316711.3872418017,65936.32056426327,-250775.06667753845,305.1761394325069,0.9525552254942915
13000,-315791.11883955495,64798.08145351568,-250993.03738603927,299.9079744121296,0.9525552254942915
13100,-316845.066408562,65711.81588733522,-251133.2505212268,304.1370539936604,0.9525552254942915
13200,-316703.0802557827,65739.2865581828,-250963.7936975999,304.26419777731616,0.9525552254942915
13300,-315984.363182005,65046.607536758645,-250937.75564524636,301.0582392431562,0.9525552254942915
13400,-316192.76490639756,64954.67811409256,-251238.086792305,300.63275802022156,0.9525552254942915
13500,-316486.5242113308,65181.47925636917,-251305.04495496163,301.68247229645874,0.9525552254942915
13600,-316621.71394120576,65561.94713242911,-251059.76680877665,303.4434094643265,0.9525552254942915
13700,-316199.9688474871,65081.954699885915,-251118.0141476012,301.22183816239766,0.9525552254942915
13800,-316829.7275187564,65378.7130770261,-251451.0144417303,302.5953387627478,0.9525552254942915
13900,-317049.73336578766,65690.92629154597,-251358.8070742417,304.0403697058094,0.9525552254942915
14000,-317010.2838763236,65983.55064303067,-251026.73323329294,305.39473660292805,0.9525552254942915
14100,-316232.8414640832,65356.32529647602,-250876.51616760716,302.49172035668164,0.9525552254942915
14200,-316610.6769105629,65410.15396518679,-251200.5229453761,302.74085808786486,0.9525552254942915
14300,-316996.07921376126,65813.96237385273,-251182.11683990853,304.60982332845555,0.9525552254942915
14400,-316392.8485089694,65419.76649394102,-250973.0820150284,302.78534820181557,0.9525552254942915
14500,-315799.5080810399,64762.77634044184,-251036.73174059804,299.74457011510634,0.9525552254942915
14600,-316222.3909348664,64859.943753691216,-251362.44718117517,300.1942945734978,0.9525552254942915
14700,-316530.9215918132,64983.57643930585,-251547.34515250736,300.7665094829842,0.9525552254942915
14800,-317035.91535988124,65059.058539668564,-251976.85682021268,301.11586679907066,0.9525552254942915
14900,-316790.24376297975,64688.71098245145,-252101.5327805283,299.40176997364006,0.9525552254942915
15000,-317462.91345277196,65236.09840866766,-252226.8150441043,301.9352686595995,0.9525552254942915
15100,-316778.33980215294,65221.59176498442,-251556.74803716852,301.8681268858777,0.9525552254942915
15200,-317015.58974374784,65254.223010841524,-251761.36673290632,302.0191555988893,0.9525552254942915
15300,-317390.6617133259,65912.39268767845,-251478.26902564743,305.06539292832707,0.9525552254942915
15400,-316669.4747666572,65197.904469000234,-251471.570297657,301.75849387208217,0.9525552254942915
15500,-317279.2382582673,66017.56317297649,-251261.6750852908,305.5521583773366,0.9525552254942915
15600,-316137.72608112404,64782.27421269572,-251355.45186842832,299.83481302418386,0.9525552254942915
15700,-317081.8301370428,65426.25500807958,-251655.57512896322,302.81537929361014,0.9525552254942915
15800,-317432.95506712096,65756.1994270276,-251676.75564009335,304.34247639487654,0.9525552254942915
15900,-316869.6032341742,65035.039999197004,-251834.5632349772,301.00470067100673,0.9525552254942915
16000,-317158.7152160299,64810.97435971,-252347.7408563199,299.96764724957,0.9525552254942915
16100,-317824.6302046417,64954.069934038445,-252870.56027060328,300.62994315218816,0.9525552254942915
16200,-318073.89490560116,65052.78202588251,-253021.11287971865,301.08681691836864,0.9525552254942915
16300,-317734.2347934623,65406.8238964614,-252327.41089700093,302.72544537588817,0.9525552254942915
16400,-317177.439885831,64545.879719885765,-252631.5601659452,298.74069739744766,0.9525552254942915
16500,-317405.1121115987,65155.951219371986,-252249.16089222673,301.56431969541245,0.9525552254942915
16600,-317637.69627580093,65357.768568182015,-252279.92770761892,302.49840031825096,0.9525552254942915
16700,-317232.9335622848,65029.29985124455,-252203.63371104025,300.97813327724083,0.9525552254942915
16800,-317465.5600881041,65379.08033051947,-252086.47975758463,302.59703853917364,0.9525552254942915
16900,-317245.1409900882,65399.090561248595,-251846.05042883963,302.689652820814,0.9525552254942915
17000,-317368.9067860567,65504.291506358306,-251864.6152796984,303.1765592483867,0.9525552254942915
17100,-317237.96391239064,65199.200293744856,-252038.76361864578,301.76449139802173,0.9525552254942915
17200,-317600.7597998702,65442.93018837395,-252157.82961149624,302.8925578061967,0.9525552254942915
17300,-318265.34215715574,65927.57155354996,-252337.77060360578,305.13564597927063,0.9525552254942915
17400,-317826.6704421737,64893.28273589909,-252933.38770627463,300.3485989355814,0.9525552254942915
17500,-317933.7076673391,64732.94502487627,-253200.76264246285,299.60650044969907,0.9525552254942915
17600,-317918.31417137245,64711.301463652635,-253207.0127077198,299.50632654855815,0.9525552254942915
17700,-317461.6009112119,64764.047753175604,-252697.55315803632,299.7504546538006,0.9525552254942915
17800,-317555.9898390877,64675.95255996792,-252880.03727911977,299.3427195734137,0.9525552254942915
17900,-317293.69873196865,64821.203639814514,-252472.49509215413,300.0149919024829,0.9525552254942915
18000,-317104.1491320231,64995.321862599,-252108.8272694241,300.820871371939,0.9525552254942915
18100,-317182.697397931,65346.670498605934,-251836.02689932508,302.4470346066159,0.9525552254942915
18200,-316732.1993744732,65059.501960629364,-251672.69741384382,301.1179191049289,0.9525552254942915
18300,-316608.8214265057,64852.95035919093,-251755.87106731476,300.16192672044104,0.9525552254942915
18400,-317120.8077683472,65180.14353193075,-251940.66423641646,301.6762901009104,0.9525552254942915
18500,-317243.7396086664,64686.58088260979,-252557.1587260566,299.3919111334634,0.9525552254942915
18600,-317588.5962276212,64881.33781139378,-252707.2584162274,300.2933136858867,0.9525552254942915
18700,-318110.3857053681,65312.85722022559,-252797.52848514254,302.29053503749583,0.9525552254942915
18800,-318443.2754730177,65647.52091265097,-252795.75456036674,303.83947457170996,0.9525552254942915
18900,-317885.96279395605,64906.42988516227,-252979.53290879377,300.4094484980433,0.9525552254942915
19000,-317613.5447337129,64630.1862996947,-252983.3584340182,299.1308974622173,0.9525552254942915
19100,-318222.23579171905,65268.86599703482,-252953.36979468423,302.0869284129923,0.9525552254942915
19200,-317204.9309998327,64488.98874220345,-252715.94225762924,298.47738623921117,0.9525552254942915
19300,-317523.1528876778,64690.91317790223,-252832.23970977555,299.41196249727795,0.9525552254942915
19400,-317582.5448959586,64525.948581454344,-253056.59631450428,298.6484491823677,0.9525552254942915
19500,-317747.8150392887,64616.405216306724,-253131.40982298198,299.0671138329588,0.9525552254942915
19600,-317918.7962566891,64803.12359080138,-253115.67266588775,299.93131117065917,0.9525552254942915
19700,-318077.5990773593,65210.1973603355,-252867.4017170238,301.81538963284123,0.9525552254942915
19800,-318097.4190961481,64852.24058357079,-253245.17851257732,300.1586416329238,0.9525552254942915
